time,ecg
0.0,0.06738087609837094
0.005,0.06599917479476328
0.01,0.0834432195543443
0.015,0.0858179757684286
0.02,0.08563695704268576
0.025,0.0930402940796396
0.03,0.09471025363410647
0.035,0.09382938366672752
0.04,0.09889082944932191
0.045,0.10223414702683276
0.05,0.10351807721510295
0.055,0.10896826722378146
0.06,0.11299721948583469
0.065,0.11371536115579954
0.07,0.11714902738710259
0.075,0.12038990549454094
0.08,0.12075482708333976
0.085,0.12355791636556009
0.09,0.127913330427309
0.095,0.13031001502638073
0.1,0.13391657860556136
0.105,0.13865941242597565
0.11,0.14174384882217247
0.115,0.14607395581166793
0.12,0.15237738624412794
0.125,0.15786372679497454
0.13,0.16438077076926533
0.135,0.17220555743320165
0.14,0.1774828984522209
0.145,0.1814933338289714
0.15,0.18681685651401608
0.155,0.1915226337847553
0.16,0.19608949949787502
0.165,0.20220012705343132
0.17,0.20708064129682344
0.175,0.2092841831577389
0.18,0.20957724797954605
0.185,0.2059529087665574
0.19,0.19811092965166688
0.195,0.18846927049933565
0.2,0.17644567256014337
0.205,0.16210765206506073
0.21,0.14869130779969308
0.215,0.1365803567145243
0.22,0.12498775950154697
0.225,0.11558259884923645
0.23,0.10776934076668743
0.235,0.09968317431031919
0.24,0.09276175361715233
0.245,0.08776742919119737
0.25,0.08384432532112114
0.255,0.08229868661173831
0.26,0.08322084653606168
0.265,0.08430235958005998
0.27,0.08558349909411081
0.275,0.08727749502328083
0.28,0.08749604548287021
0.285,0.08675773295183148
0.29,0.08679301084430274
0.295,0.0869740029581406
0.3,0.08764650796552748
0.305,0.0899908579541443
0.31,0.09256260275832777
0.315,0.09431216443354763
0.32,0.09569050767041072
0.325,0.095643440269109
0.33,0.09416747469109037
0.335,0.0933963028382563
0.34,0.09324302290479787
0.345,0.0926646735500109
0.35,0.09241905336134104
0.355,0.09221249821221382
0.36,0.09125551202488875
0.365,0.09083397004566593
0.37,0.0914453024076448
0.375,0.09228835792069179
0.38,0.09376282378163375
0.385,0.09541963729610084
0.39,0.09583142467827475
0.395,0.09578472255228347
0.4,0.09608652542389387
0.405,0.09584831552999021
0.41,0.09563174381409684
0.415,0.09628560909452294
0.42,0.09659916985073146
0.425,0.0962301898356656
0.43,0.09584597286076368
0.435,0.09476628248017066
0.44,0.09307897780832734
0.445,0.09197126302142916
0.45,0.09122732184820045
0.455,0.0909200683077477
0.46,0.09193535120597708
0.465,0.09322687768966707
0.47,0.09368972727730553
0.475,0.09403619387941894
0.48,0.09397257993177845
0.485,0.09294583836239097
0.49,0.09240127114876333
0.495,0.09284814498668796
0.5,0.09323437498294558
0.505,0.09406037794107978
0.51,0.09645759450053287
0.515,0.10085499864593372
0.52,0.10809100316445691
0.525,0.1180031788363726
0.53,0.1289741679119376
0.535,0.14029428368296995
0.54,0.1509440213995009
0.545,0.15861862712732
0.55,0.16327724353521808
0.555,0.16686928463982947
0.56,0.16955232595875777
0.565,0.17040182571547063
0.57,0.16857737370141837
0.575,0.1622914815821717
0.58,0.15082953068088975
0.585,0.13640395754997062
0.59,0.12211474999575374
0.595,0.11058615439405768
0.6,0.10320737849995991
0.605,0.09876092552788099
0.61,0.09515437711246386
0.615,0.09144296403136941
0.62,0.08672001033821816
0.625,0.08081534798307244
0.63,0.07599410338417907
0.635,0.07441325166637479
0.64,0.07536130602472262
0.645,0.07619284176624978
0.65,0.0749544273555359
0.655,0.07350709495437759
0.66,0.07679734413597986
0.665,0.08653113141538989
0.67,0.09852643689364024
0.675,0.10563503360883672
0.68,0.09854926448456537
0.685,0.07036622661998328
0.69,0.031219389415258845
0.695,0.016888540792586764
0.7,0.07505830953098813
0.705,0.2340909455333839
0.71,0.47320724043568996
0.715,0.7184489292644872
0.72,0.8754849767295237
0.725,0.87937356932077
0.73,0.7292314969737708
0.735,0.4883833850168392
0.74,0.24903671873656985
0.745,0.08394836673254058
0.75,0.016833141599318965
0.755,0.022978757005645348
0.76,0.053084169801173094
0.765,0.0672080484613626
0.77,0.055840857936102224
0.775,0.03324445041910465
0.78,0.01687848942185057
0.785,0.01338238443237181
0.79,0.01746710069117405
0.795,0.021258204203026213
0.8,0.022926110044616036
0.805,0.02454871296189139
0.81,0.026985377122063423
0.815,0.030352803525988205
0.82,0.03461078329048512
0.825,0.03888596470249103
0.83,0.04316044747775224
0.835,0.04822948393291077
0.84,0.05369227523102444
0.845,0.05904131297005565
0.85,0.06453278598971361
0.855,0.0697386386113193
0.86,0.07425834251466115
0.865,0.07849061381736165
0.87,0.0821805608725581
0.875,0.085101608127206
0.88,0.0880730442562545
0.885,0.09113882790615917
0.89,0.09377894062351981
0.895,0.09670107725414948
0.9,0.10041215171295544
0.905,0.10435929522442201
0.91,0.10842118133130818
0.915,0.11247275144436983
0.92,0.11607761824970819
0.925,0.11989549975160463
0.93,0.12472523181852217
0.935,0.13027618020728218
0.94,0.13641348186417956
0.945,0.14278875743415195
0.95,0.14800780343270514
0.955,0.1517038858091791
0.96,0.15493559856561331
0.965,0.15823904974329112
0.97,0.16209154261257191
0.975,0.16730641548956485
0.98,0.17328430103430487
0.985,0.17806156475846963
0.99,0.1795410321389277
0.995,0.1760017971057203
1.0,0.1674630354962533
1.005,0.15561963010389035
1.01,0.1416605289632813
1.015,0.12667148736962308
1.02,0.11265494942979977
1.025,0.10052134291962875
1.03,0.08987336696608958
1.035,0.08112478189180264
1.04,0.07474606388153152
1.045,0.0701311693536855
1.05,0.06674749985157742
1.055,0.06415529685651469
1.06,0.061814500212160305
1.065,0.060163886977342595
1.07,0.05985510782733477
1.075,0.06079751533334278
1.08,0.06320683856648417
1.085,0.06691813443680901
1.09,0.07032732085382348
1.095,0.07259102171094253
1.1,0.07441151506798302
1.105,0.07600571607897734
1.11,0.0773798095633773
1.115,0.07920497177431779
1.12,0.081522072053759
1.125,0.08372552110002893
1.13,0.08555775409406421
1.135,0.08682479613475091
1.14,0.08769174606620338
1.145,0.08866183735087614
1.15,0.08928215905627257
1.155,0.08912494289209594
1.16,0.08916770371892319
1.165,0.08985608503347611
1.17,0.09045630785710605
1.175,0.09109033618107287
1.18,0.09229504989354846
1.185,0.09373135744816126
1.19,0.09512667507912635
1.195,0.09646804314072867
1.2,0.09761759226480059
1.205,0.09888651671808918
1.21,0.10023736273762594
1.215,0.10085432996124319
1.22,0.10098338379301106
1.225,0.10155038787507556
1.23,0.1022584791990997
1.235,0.10282887026845755
1.24,0.10384386115225894
1.245,0.10510958123895454
1.25,0.10610366580971296
1.255,0.10718419745997287
1.26,0.10857853020645167
1.265,0.1101711224031785
1.27,0.11195603756565782
1.275,0.11338807674389816
1.28,0.11417654750111515
1.285,0.11503049314729362
1.29,0.11591614956983677
1.295,0.1161969929601608
1.3,0.11646211154567757
1.305,0.11722563826223105
1.31,0.11793116263991006
1.315,0.11872860560831136
1.32,0.12015192462827737
1.325,0.12182210166691647
1.33,0.12367308745263209
1.335,0.12626290772718957
1.34,0.1298485059198212
1.345,0.13506022703335746
1.35,0.14273672510402036
1.355,0.15292971961893537
1.36,0.1656475418132277
1.365,0.1803016320974492
1.37,0.1941864256967775
1.375,0.204609420305418
1.38,0.21106542947495108
1.385,0.2138860507296498
1.39,0.21362126102099935
1.395,0.21106289881182297
1.4,0.20574969396926981
1.405,0.1966715566135971
1.41,0.18436574317620993
1.415,0.17038282749774808
1.42,0.15693468940138108
1.425,0.1470156498861776
1.43,0.1417998950503442
1.435,0.13963896226585887
1.44,0.13857530950826097
1.445,0.13695864190567306
1.45,0.1335083552237146
1.455,0.12931364779668056
1.46,0.1267625226727664
1.465,0.1264365437283797
1.47,0.1273731315875522
1.475,0.1283277998002419
1.48,0.12900723156763635
1.485,0.13212049179200444
1.49,0.14055998298536396
1.495,0.151707120723926
1.5,0.158475338074751
1.505,0.15340147984819097
1.51,0.13143774475694672
1.515,0.09942710319756473
1.52,0.08607011129745878
1.525,0.13307817095457058
1.53,0.2692631902149859
1.535,0.48517417433339055
1.54,0.7222803861009326
1.545,0.8911579386088435
1.55,0.9184056733430213
1.555,0.7901309793220971
1.56,0.5594607627592044
1.565,0.3166842840524569
1.57,0.1421264265995017
1.575,0.0686142428915676
1.58,0.0751682849614463
1.585,0.11117994717166756
1.59,0.1311933087911154
1.595,0.11946493745385567
1.6,0.09082487479276852
1.605,0.0693894463891789
1.61,0.0656378576729367
1.615,0.07240686575966859
1.62,0.07849925657896449
1.625,0.08102949931231908
1.63,0.08367299715380697
1.635,0.08827493216055798
1.64,0.09325076996396948
1.645,0.09752166222945675
1.65,0.10153737611291154
1.655,0.10584902114896792
1.66,0.11072550311737638
1.665,0.1160344111847992
1.67,0.12128117034097075
1.675,0.1261128980554133
1.68,0.13025969906887142
1.685,0.13372997513558743
1.69,0.1372185348511216
1.695,0.14100954158213053
1.7,0.14439911210014034
1.705,0.14716280184963285
1.71,0.14977736158312643
1.715,0.15226901612987498
1.72,0.15471426610394703
1.725,0.15778948833813844
1.73,0.16168434984085928
1.735,0.16579073563965804
1.74,0.1696231859414331
1.745,0.17336002779136947
1.75,0.17781114519034494
1.755,0.18356640001438318
1.76,0.1901422194247815
1.765,0.19679490604845046
1.77,0.20337799457845415
1.775,0.2097359992619397
1.78,0.21555454537720925
1.785,0.22074696141068215
1.79,0.2251170140180305
1.795,0.22860053424348595
1.8,0.23181087297068753
1.805,0.2351331289764073
1.81,0.23791506039132324
1.815,0.23882350545741163
1.82,0.23613470789429244
1.825,0.2286079082875558
1.83,0.21668248373803733
1.835,0.20183699329762056
1.84,0.18556364997921374
1.845,0.16957383377996077
1.85,0.15515895585515183
1.855,0.14232098448541788
1.86,0.1309106966732307
1.865,0.121514281427507
1.87,0.11460104482421885
1.875,0.11006545789874045
1.88,0.10736961080290142
1.885,0.10570728105572987
1.89,0.10469854912523945
1.895,0.10437962907539941
1.9,0.10442441398761536
1.905,0.10459448981864752
1.91,0.10517413478112052
1.915,0.10608094321758053
1.92,0.10692210287106846
1.925,0.10778495525384851
1.93,0.1087725984827308
1.935,0.10977601741979529
1.94,0.11098342487540123
1.945,0.11252153655593872
1.95,0.11431116544254294
1.955,0.11654088231662173
1.96,0.1191809675709782
1.965,0.12180551287147924
1.97,0.12433853860788054
1.975,0.12661474975915435
1.98,0.1279584446429729
1.985,0.1282805036815518
1.99,0.12808204365751324
1.995,0.12739675188945623
2.0,0.1261581460941777
2.005,0.12462623478789296
2.01,0.12298561274811076
2.015,0.12157800316317403
2.02,0.12074715514871133
2.025,0.1201740097172187
2.03,0.11960899047383565
2.035,0.11928801063667961
2.04,0.11896371722233541
2.045,0.1183437224753691
2.05,0.11803785680951981
2.055,0.11856977152327454
2.06,0.11983209731112286
2.065,0.12178726241613452
2.07,0.12417868481462092
2.075,0.12634619656662768
2.08,0.12786709862683102
2.085,0.12834748541993307
2.09,0.12753291486612867
2.095,0.12612645156678445
2.1,0.12500483378430347
2.105,0.12442825821185052
2.11,0.12486972880840914
2.115,0.12654958579023995
2.12,0.12834737032366442
2.125,0.12916598671686208
2.13,0.12913881466528113
2.135,0.12877344859436832
2.14,0.12861418365222083
2.145,0.12925034483222805
2.15,0.13063129364485598
2.155,0.1322421934393957
2.16,0.13353007477045462
2.165,0.1338047228026477
2.17,0.13314238714790855
2.175,0.1326974381143703
2.18,0.13297447475442833
2.185,0.1334931099236892
2.19,0.13424780613506765
2.195,0.1357163637414138
2.2,0.1383346169016764
2.205,0.14274214295872198
2.21,0.14939636112077023
2.215,0.15836913351117782
2.22,0.16970024550472929
2.225,0.182656509449328
2.23,0.1954588298325375
2.235,0.20644598145100748
2.24,0.2142945642835148
2.245,0.21826247834370746
2.25,0.21935674468525948
2.255,0.2189425489820124
2.26,0.2162861311991065
2.265,0.20980028713682655
2.27,0.199332706117872
2.275,0.18623353986348137
2.28,0.1731112870685542
2.285,0.16290025154351
2.29,0.1568293869304547
2.295,0.15417549500234476
2.3,0.15298404578745248
2.305,0.15037704824495607
2.31,0.14480326325912046
2.315,0.13796884176876534
2.32,0.13287190029236604
2.325,0.13143776839680582
2.33,0.13348339704184142
2.335,0.1359651158601298
2.34,0.1361663183450762
2.345,0.13627510794761863
2.35,0.14058161121524604
2.355,0.1496474089241276
2.36,0.15978910540852204
2.365,0.1635390878741266
2.37,0.1507770544607877
2.375,0.11849635442470344
2.38,0.08401391874809967
2.385,0.08709693308800089
2.39,0.17301147203179112
2.395,0.3584200079610717
2.4,0.6032099193057111
2.405,0.8212363303046272
2.41,0.9266987463397427
2.415,0.8781048103058422
2.42,0.6965247699973491
2.425,0.45543716721699756
2.43,0.24301044330439867
2.435,0.1162250761607375
2.44,0.0795096926775699
2.445,0.09679301955584135
2.45,0.1210357344177332
2.455,0.12330563625075057
2.46,0.10465002391243047
2.465,0.08345888358194076
2.47,0.07383887731751593
2.475,0.07619290415600782
2.48,0.08290674892015472
2.485,0.08811536682295641
2.49,0.09168376127220366
2.495,0.0959767947600744
2.5,0.10177224343247247
2.505,0.10821347233866568
2.51,0.11453155176220282
2.515,0.12048829595785
2.52,0.1260274969108734
2.525,0.1310397732219484
2.53,0.13539723816789428
2.535,0.13915586866199967
2.54,0.14240401813384287
2.545,0.14502426563254103
2.55,0.1470737145002435
2.555,0.14918084033753237
2.56,0.15216830983783253
2.565,0.15634748926067463
2.57,0.16128404803231236
2.575,0.1662325080977219
2.58,0.17062231204368622
2.585,0.17409644808393243
2.59,0.176680110476628
2.595,0.17913803777467385
2.6,0.1824624320121591
2.605,0.1868609338509399
2.61,0.1917483902794357
2.615,0.19655611460086767
2.62,0.20115460221063572
2.625,0.2056094635317099
2.63,0.20979004708531707
2.635,0.2134834097658529
2.64,0.21677356410391935
2.645,0.21983018005355887
2.65,0.22265792838934062
2.655,0.22553234037246306
2.66,0.2289399588464595
2.665,0.2327253530785672
2.67,0.23604482375328012
2.675,0.23799014596479817
2.68,0.2375755978745431
2.685,0.23360484146998656
2.69,0.22517742448497974
2.695,0.21238902056877956
2.7,0.19660948814708792
2.705,0.17979614230134036
2.71,0.16341963679442714
2.715,0.14848599812497673
2.72,0.13588120036711643
2.725,0.1256402566999283
2.73,0.11686434112845306
2.735,0.10919256497465832
2.74,0.10324093057199428
2.745,0.09943042365648418
2.75,0.09750134176665415
2.755,0.09693704832267228
2.76,0.09715069752849853
2.765,0.09758850890088
2.77,0.09795578844025338
2.775,0.09836873191161834
2.78,0.09927513207939927
2.785,0.10083300524606147
2.79,0.10247172558759095
2.795,0.10362377241614759
2.8,0.10441322708109398
2.805,0.10511079704495922
2.81,0.10564280200816777
2.815,0.10596483528635463
2.82,0.10627373543074521
2.825,0.10670397571783087
2.83,0.10717298952021972
2.835,0.10767460146886969
2.84,0.10851325669995139
2.845,0.10976789666323421
2.85,0.11073477695418807
2.855,0.11066170962517016
2.86,0.1096411484968572
2.865,0.10814590675706001
2.87,0.106505020465797
2.875,0.1052422148595179
2.88,0.10497214975962098
2.885,0.10573522099599868
2.89,0.10691263133382839
2.895,0.10775218865109766
2.9,0.10792607709014056
2.905,0.10747729398064566
2.91,0.10622718118779925
2.915,0.10414315509036383
2.92,0.10232453928229769
2.925,0.10218711410776958
2.93,0.10384749285147588
2.935,0.10645139602238227
2.94,0.10912865183548733
2.945,0.11089454598792303
2.95,0.11101379994710771
2.955,0.10986660890629363
2.96,0.10863768764089518
2.965,0.1083789336603727
2.97,0.10949144565075264
2.975,0.11158913046393161
2.98,0.11394609016952838
2.985,0.11594399172204282
2.99,0.11687195897717835
2.995,0.11622916733465233
3.0,0.11446139068175641
3.005,0.11244954792175582
3.01,0.11064967914381525
3.015,0.10940680616656967
3.02,0.10917695942950321
3.025,0.11000843195772048
3.03,0.11149329684370263
3.035,0.11319815813039036
3.04,0.11491756551176445
3.045,0.11665987344777236
3.05,0.11828948873234134
3.055,0.11953179381042285
3.06,0.12072471662718236
3.065,0.12287652162884286
3.07,0.12681562767495763
3.075,0.13298656960221683
3.08,0.1415880001359348
3.085,0.15218018029112887
3.09,0.1636097659089344
3.095,0.17441811579852337
3.1,0.18323410503927032
3.105,0.18948480212340094
3.11,0.19368891736460675
3.115,0.19650885662336992
3.12,0.19794470720046484
3.125,0.1973036680048635
3.13,0.19319206332615613
3.135,0.1843432176354819
3.14,0.1712813806192821
3.145,0.1565243801254526
3.15,0.14314876889894718
3.155,0.13349315974285847
3.16,0.1282460201222702
3.165,0.12611730438569582
3.17,0.12476754059928767
3.175,0.12219190642912747
3.18,0.11781165285915446
3.185,0.11308284494470541
3.19,0.11043258714478393
3.195,0.11080313396305555
3.2,0.1126218609925729
3.205,0.11347284746692442
3.21,0.1128580013900094
3.215,0.11336465027913675
3.22,0.11826090379627996
3.225,0.12737465623313113
3.23,0.1356113962233996
3.235,0.13477009859135575
3.24,0.11743213609840715
3.245,0.0851037925803243
3.25,0.059093607351935556
3.255,0.08124922136692006
3.26,0.1926380569394767
3.265,0.39894502586963926
3.27,0.6502184035397893
3.275,0.855973476897869
3.28,0.9299600106034083
3.285,0.8376287439830902
3.29,0.6167722544310881
3.295,0.3567566500000561
3.3,0.14940352457850722
3.305,0.0446887558405302
3.31,0.035690613032184564
3.315,0.07419552326247308
3.32,0.10544355123917311
3.325,0.10235649633502253
3.33,0.07515431956071097
3.335,0.05042356466876928
3.34,0.04320306083994208
3.345,0.048886464525832354
3.35,0.05590025362715543
3.355,0.059248063216069395
3.36,0.0610780681024959
3.365,0.06402686277108109
3.37,0.06842918354873874
3.375,0.0735603778469957
3.38,0.07840349265858111
3.385,0.08218210206345944
3.39,0.08498663070581135
3.395,0.08733108483641837
3.4,0.08987634737858874
3.405,0.09349583712517573
3.41,0.09819674200583592
3.415,0.10276414770118891
3.42,0.10642494953629808
3.425,0.10956528210954714
3.43,0.11273350728238173
3.435,0.1162021107194257
3.44,0.1200961840936582
3.445,0.12438558340171645
3.45,0.12901549907619078
3.455,0.1337829125812493
3.46,0.13844780988438726
3.465,0.1435027845268651
3.47,0.14973134116030692
3.475,0.15687421273670796
3.48,0.16411242863530984
3.485,0.17119829247821908
3.49,0.1780347637990845
3.495,0.18429836939172436
3.5,0.1898631994704409
3.505,0.19475832962036194
3.51,0.19909878359934857
3.515,0.20319793873069736
3.52,0.20724722180266933
3.525,0.21141729765733352
3.53,0.21605085973400143
3.535,0.22079019514166673
3.54,0.22437099012911274
3.545,0.22573879512597236
3.55,0.22421743972512445
3.555,0.21918336194771956
3.56,0.21072215042657894
3.565,0.19971461559314152
3.57,0.18713052005431594
3.575,0.17393346602633683
3.58,0.1607972862365416
3.585,0.1477722252559773
3.59,0.1351554647941735
3.595,0.1238750170688759
3.6,0.11469453970441466
3.605,0.10826174838696442
3.61,0.10517225943073154
3.615,0.10489845161767526
3.62,0.10588816855662812
3.625,0.1068973547693339
3.63,0.10728562480790978
3.635,0.1069358163351359
3.64,0.10638699967151333
3.645,0.10620837028707092
3.65,0.10665065514526163
3.655,0.10797550401615778
3.66,0.11010779449893764
3.665,0.11257828598509309
3.67,0.11528706099129996
3.675,0.11819880894117699
3.68,0.12082583624402579
3.685,0.12304572622542359
3.69,0.12524713922713526
3.695,0.12742888777245567
3.7,0.1292798974372705
3.705,0.130572816077789
3.71,0.13111029546574496
3.715,0.13109138284015834
3.72,0.13101763707012157
3.725,0.13104158638983443
3.73,0.13136572554402412
3.735,0.1324546197882526
3.74,0.1340993977425128
3.745,0.13561313696394725
3.75,0.13680689553330969
3.755,0.13766205934831247
3.76,0.13804586589394716
3.765,0.13812372406257173
3.77,0.13805656472251743
3.775,0.1378619778391366
3.78,0.13785151839734353
3.785,0.13825347412057729
3.79,0.13900663301475913
3.795,0.14028684294043786
3.8,0.14207192444056618
3.805,0.14378824751814862
3.81,0.1452125636152376
3.815,0.1464034709307591
3.82,0.14695283228901576
3.825,0.14671006372099218
3.83,0.14627443580986443
3.835,0.1461826309492703
3.84,0.14661208321639435
3.845,0.14739973862676628
3.85,0.148029351160778
3.855,0.14839460908630642
3.86,0.1487645424932746
3.865,0.14885906694614723
3.87,0.1485715234259317
3.875,0.1486870110291573
3.88,0.14970606303962364
3.885,0.15187186332552421
3.89,0.15624687991423405
3.895,0.16362314720632706
3.9,0.17358562708063702
3.905,0.18558353536191916
3.91,0.19888373418996635
3.915,0.2117457424943455
3.92,0.22230616470967282
3.925,0.22965728740860508
3.93,0.23414696646859048
3.935,0.23713980060114448
3.94,0.2391451080509084
3.945,0.23854758174146418
3.95,0.23351989094462358
3.955,0.22375227214624
3.96,0.2102286671894497
3.965,0.19548400450453968
3.97,0.18309301135906797
3.975,0.17524334182636156
3.98,0.171604333200697
3.985,0.16994707287110655
3.99,0.1672734581957926
3.995,0.1621278148875558
4.0,0.15557756257366107
4.005,0.1494024520319193
4.01,0.14545660440501032
4.015,0.14526504143553529
4.02,0.14713625426576205
4.025,0.1471124417948289
4.03,0.14490698030355348
4.035,0.14450175502511606
4.04,0.14877450014341037
4.045,0.15678814035975333
4.05,0.16355047396825023
4.055,0.1601583793038394
4.06,0.1385120946900708
4.065,0.10168477398389733
4.07,0.07497009340031445
4.075,0.10496322905113765
4.08,0.23229001252162107
4.085,0.45220200287998674
4.09,0.7030490919114576
4.095,0.8945712427055407
4.1,0.9507470759647271
4.105,0.8465300255702362
4.11,0.6244324719045351
4.115,0.3731335725336303
4.12,0.1774262653871469
4.125,0.07823228618020746
4.13,0.06464753398690934
4.135,0.09207255717331278
4.14,0.11406777255329922
4.145,0.10972548450087768
4.15,0.08731541674146882
4.155,0.06618298257013622
4.16,0.05752091977029437
4.165,0.05914308717801346
4.17,0.06333844938465687
4.175,0.06601926638905677
4.18,0.06771818169408875
4.185,0.0695916776233637
4.19,0.07188583214830511
4.195,0.07473386302475353
4.2,0.07828824949168332
4.205,0.08253123134542263
4.21,0.08725045125699778
4.215,0.09194119338787973
4.22,0.09608082274456406
4.225,0.09946014347308647
4.23,0.10215121705445472
4.235,0.10458270374961502
4.24,0.10737609624940742
4.245,0.11066097005450062
4.25,0.1140502345355431
4.255,0.11738629250028297
4.26,0.12086046523204279
4.265,0.12450514767588412
4.27,0.12815103902016395
4.275,0.1318259092728436
4.28,0.13582826679326088
4.285,0.1403537978357267
4.29,0.1453250871000957
4.295,0.15072561691154965
4.3,0.1567087404776151
4.305,0.16314011745618573
4.31,0.1694840320040442
4.315,0.1753668520674062
4.32,0.18083729170314777
4.325,0.1859361494129158
4.33,0.19043050515681803
4.335,0.1942026993282484
4.34,0.19758337121879005
4.345,0.2009967282457142
4.35,0.20454406394443583
4.355,0.20813789433252047
4.36,0.21148783469140117
4.365,0.21357804273758854
4.37,0.2126962345441589
4.375,0.2074648202356376
4.38,0.19780526730367004
4.385,0.18493281362693126
4.39,0.1706357982694165
4.395,0.15667274365460016
4.4,0.14449594454970263
4.405,0.13474560144891848
4.41,0.12694395770548736
4.415,0.1203795447723343
4.42,0.11500549026325345
4.425,0.11084874965837294
4.43,0.10743922683989582
4.435,0.10457634211562172
4.44,0.10272367494119235
4.445,0.1021757502768801
4.45,0.10258615446691549
4.455,0.10343916855895262
4.46,0.1044465754303049
4.465,0.10536533407937052
4.47,0.10580141915504462
4.475,0.10574199334805623
4.48,0.10607882044245988
4.485,0.10766644756540246
4.49,0.11011035693554692
4.495,0.1124334257611374
4.5,0.11424908101419505
4.505,0.11547962775106156
4.51,0.11597900692508852
4.515,0.11602798124674261
4.52,0.11629786693637842
4.525,0.11709860696846615
4.53,0.11813380130271671
4.535,0.11896975524292758
4.54,0.11960016027705032
4.545,0.12035061014865817
4.55,0.12114370121225099
4.555,0.12146826926222924
4.56,0.12115182450487537
4.565,0.12034112568541115
4.57,0.1190204748647708
4.575,0.117459070616022
4.58,0.11655391643682843
4.585,0.11697613235045466
4.59,0.11847590936554099
4.595,0.12034283332036476
4.6,0.12217336137243186
4.605,0.12398810316859758
4.61,0.12570993189297572
4.615,0.12697359765242916
4.62,0.12766361359306463
4.625,0.12799945143502303
4.63,0.12799991926242454
4.635,0.12775047852838672
4.64,0.1279478994139664
4.645,0.12915307784896574
4.65,0.13090287903213133
4.655,0.13226894992023475
4.66,0.1327739919855919
4.665,0.1324309444251768
4.67,0.13146347235133093
4.675,0.13032600923985566
4.68,0.12970103487424042
4.685,0.1300576618704322
4.69,0.13124817675459757
4.695,0.1328603470882317
4.7,0.13463354917098133
4.705,0.13613996914597007
4.71,0.1368323666034554
4.715,0.13699672637490892
4.72,0.13803542684291967
4.725,0.14159057066515773
4.73,0.14870279521725718
4.735,0.15938415994975602
4.74,0.17251093371383214
4.745,0.18616473636786038
4.75,0.19817263912498548
4.755,0.2069567397741907
4.76,0.21251529032931113
4.765,0.21603587435728297
4.77,0.21822292434937343
4.775,0.2185597995227448
4.78,0.2158327115912452
4.785,0.20882666433786268
4.79,0.19736552836180155
4.795,0.18315881297551762
4.8,0.16913362826852674
4.805,0.15797377652229153
4.81,0.15106298869658452
4.815,0.1479042897810939
4.82,0.14654391939904582
4.825,0.14486556101760084
4.83,0.14141157567274515
4.835,0.13592181442151677
4.84,0.12991160145931296
4.845,0.1256867220427724
4.85,0.12410169544014385
4.855,0.1239387521358644
4.86,0.12364968461204655
4.865,0.12356902325229596
4.87,0.12620237717976843
4.875,0.13330885105254667
4.88,0.14252045561090432
4.885,0.14745009393683212
4.89,0.14044158886583422
4.895,0.1171683087276741
4.9,0.08606544564762787
4.905,0.07720095441462588
4.91,0.13438780471884654
4.915,0.2860002355752084
4.92,0.5144444870142691
4.925,0.7507604890651142
4.93,0.9033864350942138
4.935,0.9058831003589398
4.94,0.7544270186400239
4.945,0.5109607787466391
4.95,0.2692516764982261
4.955,0.10525445099244377
4.96,0.04320223238339891
4.965,0.05559843691942555
4.97,0.09046095970832972
4.975,0.10539021282031232
4.98,0.08943472277407406
4.985,0.06082182355977046
4.99,0.043415133426594234
4.995,0.04419441827878404
5.0,0.053074206689268225
5.005,0.05923382071418487
5.01,0.06104283773300507
5.015,0.06184691790476756
5.02,0.06347172596871978
5.025,0.06588352449481871
5.03,0.06912128561131287
5.035,0.07322728348916308
5.04,0.07763517059137977
5.045,0.08169010753625233
5.05,0.08530158992083436
5.055,0.08867698758631896
5.06,0.09180723720582702
5.065,0.09470547630602355
5.07,0.09764781439124211
5.075,0.10052184713066695
5.08,0.10279252296124541
5.085,0.1046751511840521
5.09,0.10693698038511006
5.095,0.10936942623288959
5.1,0.11131027027035595
5.105,0.11326193967221482
5.11,0.11609136380657023
5.115,0.11958466193442907
5.12,0.1232478592989445
5.125,0.1272995300285782
5.13,0.13210937655400448
5.135,0.13775911471386315
5.14,0.1443370272464825
5.145,0.15200558661036428
5.15,0.16070066803318475
5.155,0.16974760923273635
5.16,0.1780088777062389
5.165,0.1848752186851711
5.17,0.19076318246545806
5.175,0.19645203824170507
5.18,0.20254703606762547
5.185,0.2092557645258067
5.19,0.2158011105593765
5.195,0.2203724393363822
5.2,0.22112471003710094
5.205,0.21709710516533906
5.21,0.20845509941677212
5.215,0.1961846500876628
5.22,0.18154300515174296
5.225,0.1659297675713882
5.23,0.15081692896249518
5.235,0.13705537924844985
5.24,0.12474634929358426
5.245,0.11415562682304713
5.25,0.10582308571520802
5.255,0.09973458918075277
5.26,0.09533343090953869
5.265,0.09215804788624071
5.27,0.08998020187041603
5.275,0.088664924639405
5.28,0.08805315404456066
5.285,0.0879665022290199
5.29,0.08842685961440007
5.295,0.08950184500541827
5.3,0.09091644426791179
5.305,0.09236165742962915
5.31,0.09382774553259762
5.315,0.09518808087975296
5.32,0.0961431808857138
5.325,0.09673224084802212
5.33,0.09724160024130912
5.335,0.09777736944458222
5.34,0.09824953831005084
5.345,0.09850588683374753
5.35,0.09854040310450497
5.355,0.09856297100054683
5.36,0.09856097693424265
5.365,0.09821475238887771
5.37,0.0974863659656512
5.375,0.09661916316661928
5.38,0.0956378293050703
5.385,0.09448169285704819
5.39,0.0932892015658471
5.395,0.0922556618383289
5.4,0.09155425269720575
5.405,0.09128941034971925
5.41,0.09139558192630097
5.415,0.09177249247109914
5.42,0.09228514342939081
5.425,0.0926708847683329
5.43,0.09292474176932082
5.435,0.09340982454991877
5.44,0.09425534763548968
5.445,0.09529097179454571
5.45,0.09652527467566822
5.455,0.09794834033729893
5.46,0.09914485262058405
5.465,0.09966627151329834
5.47,0.09960673478623616
5.475,0.09956465696934572
5.48,0.09993374187531916
5.485,0.10041730949525697
5.49,0.10066887057589788
5.495,0.10095401725913203
5.5,0.10156230135224964
5.505,0.10233429854543187
5.51,0.10322077101021249
5.515,0.10440824526421452
5.52,0.10581605084833735
5.525,0.10717916709117077
5.53,0.10844262875319546
5.535,0.10979678475158787
5.54,0.11141532082007133
5.545,0.113044337655319
5.55,0.11421098824195157
5.555,0.11514984752208639
5.56,0.11688862054623905
5.565,0.12048340949708643
5.57,0.12682381898966008
5.575,0.13642327552336614
5.58,0.14868802998236064
5.585,0.16197229236302904
5.59,0.17430802468315382
5.595,0.1839150207464208
5.6,0.18988830911599508
5.605,0.19255449929730378
5.61,0.19283673591273146
5.615,0.1915646069361433
5.62,0.188638156100476
5.625,0.18237969738310136
5.63,0.171498810536856
5.635,0.15776375440028034
5.64,0.1446868176655675
5.645,0.13465494843910256
5.65,0.12880723886783196
5.655,0.12705462435481843
5.66,0.12698354508805904
5.665,0.12525754528448993
5.67,0.12049560397448371
5.675,0.11383493373354067
5.68,0.10798692661428476
5.685,0.10577515176459186
5.69,0.1076048293313874
5.695,0.11062466066637791
5.7,0.11181745162261261
5.705,0.11162963264689432
5.71,0.1137119528686258
5.715,0.12073808775669431
5.72,0.13061659847955973
5.725,0.13660805650068672
5.73,0.1298169990661102
5.735,0.1039707559417392
5.74,0.06665366457147794
5.745,0.05014384375484781
5.75,0.10231781388791288
5.755,0.25379179503039817
5.76,0.4856986799941923
5.765,0.7260389163150781
5.77,0.8815184541187248
5.775,0.8871054504193786
5.78,0.7417748093619643
5.785,0.5075662110351628
5.79,0.27470608735613755
5.795,0.11543037625952683
5.8,0.05278826477628757
5.805,0.0605599922328359
5.81,0.09016464469951413
5.815,0.10360189106838052
5.82,0.0914759313887349
5.825,0.0680195792915877
5.83,0.051328493884898296
5.835,0.04760322089963727
5.84,0.051480268416086813
5.845,0.05615777457123329
5.85,0.05975387818168319
5.855,0.06364757215556065
5.86,0.0683913278963243
5.865,0.07284238012638981
5.87,0.07618029469352998
5.875,0.07902288171449622
5.88,0.08247107074920627
5.885,0.08703286011106147
5.89,0.09250238681677768
5.895,0.09831195842981345
5.9,0.10382899909603016
5.905,0.10840525844870422
5.91,0.11161126994953853
5.915,0.11376073028516623
5.92,0.11568291755265706
5.925,0.11782031363876072
5.93,0.12014660877421748
5.935,0.12275455511341447
5.94,0.12589796907852494
5.945,0.12966569869047168
5.95,0.13383676514991702
5.955,0.13798546028032607
5.96,0.14188818242217263
5.965,0.14571115216963573
5.97,0.1497357888621943
5.975,0.15435003075803516
5.98,0.16004862130500427
5.985,0.16681499079501194
5.99,0.17394511185261877
5.995,0.18076147420788743
6.0,0.186984223644281
6.005,0.19263747841233292
6.01,0.19803667972844163
6.015,0.20354307206627711
6.02,0.2093090314234462
6.025,0.2152318726015328
6.03,0.22059315441321384
6.035,0.22407657591880875
6.04,0.22460407634380095
6.045,0.22144308788575706
6.05,0.21381748025965655
6.055,0.20178511006078959
6.06,0.18696218795022185
6.065,0.1713624600040639
6.07,0.15624828389846823
6.075,0.14232158349898846
6.08,0.13005294469702172
6.085,0.11970752787321597
6.09,0.11138384192914123
6.095,0.10507094388889066
6.1,0.10084465639733928
6.105,0.09866093450204484
6.11,0.09772864131024853
6.115,0.09702927933328055
6.12,0.09649693473719895
6.125,0.09663022532437827
6.13,0.09753212458115075
6.135,0.09920576706634827
6.14,0.10177188942957265
6.145,0.10492193410639773
6.15,0.1079435486551026
6.155,0.11016660818325055
6.16,0.11118800281108392
6.165,0.11114419431597901
6.17,0.11060864317060262
6.175,0.1102114893083608
6.18,0.11074329347959379
6.185,0.1127438436714777
6.19,0.11545056718545567
6.195,0.1173879561069795
6.2,0.1180896150057157
6.205,0.11808059358889537
6.21,0.11774128855671442
6.215,0.11720712244270826
6.22,0.11673890467998564
6.225,0.1165217191633769
6.23,0.1163023851938777
6.235,0.11557349973022295
6.24,0.11441225830665439
6.245,0.11372022694548907
6.25,0.11405660631166845
6.255,0.1150375340117569
6.26,0.11635197117731413
6.265,0.118087911873973
6.27,0.11982900076626123
6.275,0.12077813474383563
6.28,0.12076497859774522
6.285,0.12025072241030013
6.29,0.11964853642524689
6.295,0.11918001568544415
6.3,0.1191477974071537
6.305,0.11984568275384813
6.31,0.12103801767889848
6.315,0.12207951089541395
6.32,0.1228414325875777
6.325,0.12367794882422853
6.33,0.1243992844115482
6.335,0.12448580085024094
6.34,0.12418778481039473
6.345,0.12431923357789791
6.35,0.12531572735112487
6.355,0.12709078115222378
6.36,0.12929189639571206
6.365,0.13139568239876487
6.37,0.13283668575410967
6.375,0.1333950301371422
6.38,0.13381987384179592
6.385,0.13570476898100442
6.39,0.14019851018207882
6.395,0.14738345899885022
6.4,0.15692211613294035
6.405,0.16807354847531497
6.41,0.17924361699250088
6.415,0.18875467954779232
6.42,0.1958536616678028
6.425,0.20053962194937244
6.43,0.2029185920735111
6.435,0.20272970888661448
6.44,0.19925222698533776
6.445,0.1919028351424584
6.45,0.1808554783084029
6.455,0.16726118264526957
6.46,0.15339745946331462
6.465,0.14193907729945338
6.47,0.1342481954037271
6.475,0.12978549357689487
6.48,0.1271203842894634
6.485,0.1248642520054661
6.49,0.12214611467181674
6.495,0.11894020800690877
6.5,0.11600049321082391
6.505,0.11445296526089942
6.51,0.11479428723881092
6.515,0.11583177696575184
6.52,0.11584194655258315
6.525,0.11528995346027478
6.53,0.11700326445222074
6.535,0.12325443962104228
6.54,0.1329809995477931
6.545,0.14079773692750616
6.55,0.13837744743267466
6.555,0.11929111683432876
6.56,0.0874691985939763
6.565,0.06595802929430769
6.57,0.09546306124705291
6.575,0.21267132886620377
6.58,0.4181711155567927
6.585,0.660765239389262
6.59,0.8539996432810538
6.595,0.9176868076112457
6.6,0.8221541016559637
6.605,0.6064925165424452
6.61,0.3556692836670553
6.615,0.15415363987012243
6.62,0.04813203749890028
6.625,0.03247222170918154
6.63,0.06337818803083689
6.635,0.09028755131871882
6.64,0.08755489725358058
6.645,0.06286833312060276
6.65,0.03941890522051925
6.655,0.031683081624189556
6.66,0.03667251138419528
6.665,0.04402464687557499
6.67,0.04874108848713709
6.675,0.052243307928421134
6.68,0.05619907086812227
6.685,0.06026101783328615
6.69,0.0640247570457317
6.695,0.0677133821567979
6.7,0.07129548235612791
6.705,0.07448258945347597
6.71,0.07742136901041592
6.715,0.08069570209781417
6.72,0.08465348242469663
6.725,0.08902306921550464
6.73,0.09315832556728777
6.735,0.09647562735659702
6.74,0.09886158751870816
6.745,0.1009163152078044
6.75,0.10353713410535356
6.755,0.10702934875974439
6.76,0.11089018213058663
6.765,0.11456570034524054
6.77,0.11795288060365033
6.775,0.12097230166035275
6.78,0.12343577154405082
6.785,0.12590113920751678
6.79,0.1297467651121907
6.795,0.1356665632666156
6.8,0.1430253239483117
6.805,0.1510750058755898
6.81,0.15950937480800487
6.815,0.1676005740075109
6.82,0.17414925817314147
6.825,0.1786201961388814
6.83,0.1816741255280755
6.835,0.18457244874317552
6.84,0.18830186047249858
6.845,0.19311133665632327
6.85,0.19844736652871067
6.855,0.20290845174375247
6.86,0.20461858891459955
6.865,0.20235938578720108
6.87,0.19611599596047394
6.875,0.1864058951159389
6.88,0.1740120745342108
6.885,0.16039483179908884
6.89,0.14721361010229803
6.895,0.1353239221355968
6.9,0.1247608490766814
6.905,0.11542335882810416
6.91,0.10748260806544185
6.915,0.10128133715640038
6.92,0.09696803513817023
6.925,0.09442901076471001
6.93,0.09346236514348152
6.935,0.09358437825808141
6.94,0.09397245368691698
6.945,0.09406742897920768
6.95,0.09388280487492817
6.955,0.09369540704811684
6.96,0.09389046324440567
6.965,0.09483202681555353
6.97,0.09655292534850102
6.975,0.09877938565629721
6.98,0.10112444907383386
6.985,0.10320025894530713
6.99,0.1049086947014584
6.995,0.10642326584569642
7.0,0.10774115640821379
7.005,0.108791904416738
7.01,0.10978465361790325
7.015,0.11086141946039925
7.02,0.1118787183437191
7.025,0.1128126768215862
7.03,0.1138356820603373
7.035,0.11502143244945286
7.04,0.11621780083601312
7.045,0.11704228621332677
7.05,0.11722335870355596
7.055,0.1170167716249168
7.06,0.11684575805847121
7.065,0.11683147147873801
7.07,0.11704033947308043
7.075,0.1175765928496258
7.08,0.11834416453224796
7.085,0.11927523009442084
7.09,0.12054382610366189
7.095,0.1223065833083984
7.1,0.1245109540470624
7.105,0.12680643769817201
7.11,0.12864187807530428
7.115,0.12973779000104657
7.12,0.13010437033666453
7.125,0.12972367766013085
7.13,0.12898784907116242
7.135,0.12886164626076954
7.14,0.12986936794022813
7.145,0.13172862390410633
7.15,0.13407122973025315
7.155,0.13655130975370286
7.16,0.13860248344281575
7.165,0.1397981941464688
7.17,0.1401178981347673
7.175,0.1398188295323046
7.18,0.13925941379252826
7.185,0.1387645093716552
7.19,0.13895443641127447
7.195,0.14096760525424834
7.2,0.14559170538756877
7.205,0.15279342967309298
7.21,0.16252256262183265
7.215,0.17455122257910607
7.22,0.1873382387653538
7.225,0.19856645895278172
7.23,0.2067755072438037
7.235,0.2117909891410823
7.24,0.21410100450822214
7.245,0.2141228929548475
7.25,0.2118322127714564
7.255,0.20686874769211433
7.26,0.1985723257052694
7.265,0.18661169208522868
7.27,0.17267828436431146
7.275,0.16035609877724602
7.28,0.1522012165975755
7.285,0.1480441315583748
7.29,0.14589797632516716
7.295,0.14320894587354835
7.3,0.13825973131896363
7.305,0.13137426048674772
7.31,0.1245113648281807
7.315,0.12023403194362264
7.32,0.11997890792485215
7.325,0.12145023848433023
7.33,0.12035568221546099
7.335,0.11674698288711777
7.34,0.11584570245934518
7.345,0.12150679215903254
7.35,0.13228359237998125
7.355,0.14228781119270895
7.36,0.14208276568737685
7.365,0.12220068715593431
7.37,0.08402110153371017
7.375,0.05295364914237818
7.38,0.0777692369647897
7.385,0.20264647069423705
7.39,0.42669734787646757
7.395,0.6884743506473515
7.4,0.8911318419290538
7.405,0.950105848953084
7.41,0.838990665768291
7.415,0.6076547886463681
7.42,0.35224485704259556
7.425,0.1581062970770408
7.43,0.06285614395470217
7.435,0.05377910864716519
7.44,0.08489042236988875
7.445,0.10739154650367652
7.45,0.10069621003692611
7.455,0.07694247532148502
7.46,0.0577161800147949
7.465,0.05237980277051878
7.47,0.05605452975840606
7.475,0.06025043367586762
7.48,0.06200806462793062
7.485,0.06362030480214699
7.49,0.06699349369362595
7.495,0.07171010646288141
7.5,0.07683158311939646
7.505,0.08156338784329331
7.51,0.08538393794278269
7.515,0.0886801822839052
7.52,0.0921578352976886
7.525,0.09597202398952279
7.53,0.10002774394407446
7.535,0.10412591515811782
7.54,0.10781847239884534
7.545,0.11087924824431539
7.55,0.11356322557756948
7.555,0.11634983051902696
7.56,0.11976124918544848
7.565,0.12395748656592336
7.57,0.12848049606046044
7.575,0.13282056034487488
7.58,0.13678373111548936
7.585,0.14022538250401637
7.59,0.14319183502633911
7.595,0.1462057761112156
7.6,0.14986905379719553
7.605,0.1544172896208924
7.61,0.15977563128738378
7.615,0.1658001267847549
7.62,0.17251457402983236
7.625,0.1800816596904149
7.63,0.188435806840748
7.635,0.19717302108271093
7.64,0.20580461594132146
7.645,0.21387164644954623
7.65,0.2209946357142436
7.655,0.22703378450823272
7.66,0.23195892747012156
7.665,0.23535722705976375
7.67,0.23622808294968473
7.675,0.23351910133784373
7.68,0.22691177278683455
7.685,0.21695567613606864
7.69,0.20457687988922676
7.695,0.1907495572632294
7.7,0.17640627111312332
7.705,0.16223480202920548
7.71,0.14869212980022353
7.715,0.13642964988366035
7.72,0.1264201822137796
7.725,0.11932544831011967
7.73,0.11481794761094596
7.735,0.11187265173541502
7.74,0.10973478553971543
7.745,0.10821029195618621
7.75,0.10723643806085294
7.755,0.10693252130372605
7.76,0.10779568084736266
7.765,0.10998170776928604
7.77,0.11268193137304272
7.775,0.11482278001897374
7.78,0.11607369763694497
7.785,0.11693607648820516
7.79,0.1181252318110008
7.795,0.1199594197395992
7.8,0.12231206150059667
7.805,0.1248887177784842
7.81,0.12718336548495005
7.815,0.12872941137867056
7.82,0.12994485413190596
7.825,0.1317848762815627
7.83,0.13414859745673915
7.835,0.1358816012528298
7.84,0.13640808980726588
7.845,0.13604465180410863
7.85,0.13508448553617086
7.855,0.13383520506828897
7.86,0.13305747672350707
7.865,0.1333288733911773
7.87,0.13424602019217205
7.875,0.13489894797694596
7.88,0.1350365638316196
7.885,0.1352370023074027
7.89,0.13593530631896067
7.895,0.1370436923630106
7.9,0.13855515471278682
7.905,0.1403974096384749
7.91,0.14170476896833475
7.915,0.14160077454821263
7.92,0.14059456047366528
7.925,0.1399131170207807
7.93,0.13985735744450767
7.935,0.14001703904376656
7.94,0.14043519974227597
7.945,0.14129823957674736
7.95,0.1420538254444821
7.955,0.1419815588527936
7.96,0.14121569941208675
7.965,0.14033686836827292
7.97,0.1394582683202886
7.975,0.13849596786433557
7.98,0.13782046176845095
7.985,0.13792106825361625
7.99,0.1387874113553762
7.995,0.14003978595213598
8.0,0.14128561539395787
8.005,0.14205183204574046
8.01,0.14175915496766617
8.015,0.14028045242568893
8.02,0.13856302812877302
8.025,0.13829910037710066
8.03,0.14079511252944532
8.035,0.14644388102621586
8.04,0.15518887680951657
8.045,0.16669937572187934
8.05,0.17979897797377148
8.055,0.1923724412809588
8.06,0.20230045998916044
8.065,0.20840627584488106
8.07,0.2106650915946603
8.075,0.20994967699356
8.08,0.2074767040657052
8.085,0.2038547012268254
8.09,0.1984390702656072
8.095,0.19002394021782817
8.1,0.17838607454887592
8.105,0.1650000439516819
8.11,0.15234058929126584
8.115,0.14263972701076197
8.12,0.13687535241418966
8.125,0.13429326578243375
8.13,0.13275241788485645
8.135,0.12994593460875958
8.14,0.1249696531697439
8.145,0.11910002057616062
8.15,0.11470232258934428
8.155,0.1129403794331014
8.16,0.11280697128447843
8.165,0.11274895555791298
8.17,0.11293591884037917
8.175,0.11540331936537679
8.18,0.12169123697331197
8.185,0.13007468939278555
8.19,0.1347369647122116
8.195,0.1278443549956482
8.2,0.10480555652631438
8.205,0.072813220914222
8.21,0.05835329094121113
8.215,0.10232063992317382
8.22,0.23581764284313683
8.225,0.4498222771716557
8.23,0.6848834728412192
8.235,0.8538043019360906
8.24,0.8854847434647274
8.245,0.7642014418024183
8.25,0.5396090582237663
8.255,0.29895297101578383
8.26,0.12006480092693107
8.265,0.03680060560924761
8.27,0.03346564515778905
8.275,0.06403806541760372
8.28,0.08359565413502523
8.285,0.07427792013013365
8.29,0.04818956774818447
8.295,0.027444938926083833
8.3,0.022402642976770235
8.305,0.02739713625901022
8.31,0.03250464402255111
8.315,0.03468500582569911
8.32,0.037062110915431073
8.325,0.04192875322753554
8.33,0.04826990883448665
8.335,0.05424982737655454
8.34,0.05905074160775783
8.345,0.06292086178075001
8.35,0.06668506358532585
8.355,0.07088837429996447
8.36,0.07555610904579875
8.365,0.08071975049024176
8.37,0.08613519043195421
8.375,0.09080213698302311
8.38,0.09388305250403678
8.385,0.09569535492965467
8.39,0.09723044703710963
8.395,0.09913968547088212
8.4,0.10136956563150154
8.405,0.10366367773362899
8.41,0.10630071010915038
8.415,0.10984883103673942
8.42,0.11427837795380884
8.425,0.11903179572283992
8.43,0.12371615913961734
8.435,0.1281557913671752
8.44,0.13229276529520095
8.445,0.13653224556384655
8.45,0.141730271104936
8.455,0.14834713668825866
8.46,0.1557324475533311
8.465,0.16271554640962227
8.47,0.16880418253016596
8.475,0.17419926270575017
8.48,0.17921066319699097
8.485,0.18458021622756926
8.49,0.1911802949853909
8.495,0.1982937975728638
8.5,0.20352491660084765
8.505,0.2048210853739395
8.51,0.20128804811425316
8.515,0.19277348626110719
8.52,0.18019959460997112
8.525,0.1655353746978751
8.53,0.1506951450880188
8.535,0.1369237937663568
8.54,0.12477460022210127
8.545,0.11413781096542051
8.55,0.10473650248820295
8.555,0.09652150425154216
8.56,0.08956815583107905
8.565,0.084255887228343
8.57,0.08114763507438687
8.575,0.08010716589610566
8.58,0.08028912177390748
8.585,0.0810529108940782
8.59,0.08210742219954838
8.595,0.083269042918594
8.6,0.0846335522737441
8.605,0.08649429725299092
8.61,0.08907056688339388
8.615,0.09234801309199858
8.62,0.09574874581359855
8.625,0.09838506656237113
8.63,0.0999522368804343
8.635,0.1006789564119254
8.64,0.10071309843619121
8.645,0.10033485423454509
8.65,0.10007179200658345
8.655,0.1001867724518805
8.66,0.10064592880802281
8.665,0.10132176484671036
8.67,0.10192694895139791
8.675,0.10226284064057642
8.68,0.10236691128466917
8.685,0.10223160964520199
8.69,0.10196227997078883
8.695,0.1019089074322993
8.7,0.10215247841357468
8.705,0.1025412328188376
8.71,0.10317030200579191
8.715,0.10404776420892503
8.72,0.1048293893761415
8.725,0.10533292372544566
8.73,0.10570847705733206
8.735,0.1061925812353818
8.74,0.10696257524059921
8.745,0.10787283039179951
8.75,0.10860606984562265
8.755,0.10921198281354605
8.76,0.10982402397564564
8.765,0.11027320518830687
8.77,0.11063391268019047
8.775,0.11124468093627303
8.78,0.11193456817438402
8.785,0.11217928131298184
8.79,0.11184944706379772
8.795,0.11134918024765562
8.8,0.11138353232750378
8.805,0.112431452131765
8.81,0.11426786458754905
8.815,0.11631074414831605
8.82,0.11797905830116225
8.825,0.11866583299055054
8.83,0.11834992285220991
8.835,0.11784833277493581
8.84,0.11768837721351853
8.845,0.11769980481178416
8.85,0.11789673567140463
8.855,0.11852332938751269
8.86,0.11944380713591375
8.865,0.12028004262734966
8.87,0.12095961166308701
8.875,0.12216276728360885
8.88,0.1250687241947604
8.885,0.1302915948161494
8.89,0.13786670683231164
8.895,0.14806481083141992
8.9,0.16046648911670716
8.905,0.17293450195287616
8.91,0.18317768338909554
8.915,0.19024419424910757
8.92,0.19399274248227646
8.925,0.1946922218011645
8.93,0.1929027642044159
8.935,0.18866144533235474
8.94,0.18125393861913355
8.945,0.1699756643895169
8.95,0.15530925264799486
8.955,0.13993822315284907
8.96,0.1274451102121386
8.965,0.11946951233824094
8.97,0.11552614867209214
8.975,0.11435361397674942
8.98,0.11362800550256719
8.985,0.11080609723840987
8.99,0.10570934161038523
8.995,0.10054708475317266
9.0,0.09787646130661257
9.005,0.09877442454406515
9.01,0.10109316500207871
9.015,0.10140267656314648
9.02,0.10046445974904702
9.025,0.1029173416582969
9.03,0.11104355030847649
9.035,0.12245929625991789
9.04,0.13092859956889802
9.045,0.12630381347033845
9.05,0.10038582881321319
9.055,0.060293520533764786
9.06,0.03763082547129038
9.065,0.08097253985841175
9.07,0.22601528770233395
9.075,0.45840092220816525
9.08,0.7059114295078726
9.085,0.8742281297402729
9.09,0.8963795597665624
9.095,0.7645321036376415
9.1,0.534074662240797
9.105,0.2953772651252923
9.11,0.12499359518387648
9.115,0.050874975402399006
9.12,0.05147567497641041
9.125,0.07928890203102355
9.13,0.09310993829717712
9.135,0.08111042356390448
9.14,0.057622764448800635
9.145,0.040911347367732574
9.15,0.0372316250921883
9.155,0.04153600140865757
9.16,0.04652471764433755
9.165,0.04962704512450044
9.17,0.05252236440551236
9.175,0.056416921630745735
9.18,0.06065877088709119
9.185,0.0646966563521269
9.19,0.06866007890392586
9.195,0.07282965166520249
9.2,0.07750443545160286
9.205,0.08252984644632755
9.21,0.08728208068320543
9.215,0.09151155798780342
9.22,0.09535190699938147
9.225,0.09883403021284844
9.23,0.10214033127195785
9.235,0.10565047594995175
9.24,0.10949388544787408
9.245,0.11354861279249091
9.25,0.11760052512150085
9.255,0.12144553191160362
9.26,0.1252035884349476
9.265,0.1291593452792858
9.27,0.13323112512145202
9.275,0.13716321373332954
9.28,0.14092390072866895
9.285,0.14452926424605578
9.29,0.14809481635450467
9.295,0.15219117049795353
9.3,0.15752360731849305
9.305,0.164216700442469
9.31,0.1716181044123289
9.315,0.17869837539952443
9.32,0.18473264353940924
9.325,0.18973665998950667
9.33,0.1942391553809513
9.335,0.19884630968094358
9.34,0.20398986739847919
9.345,0.20947173307295955
9.35,0.21404119791111517
9.355,0.2159043979818538
9.36,0.21382817387406847
9.365,0.20759202582363337
9.37,0.19769180275025477
9.375,0.18507412247709756
9.38,0.1709536705516904
9.385,0.15643939815801608
9.39,0.14233915959324456
9.395,0.12936852575553395
9.4,0.1182553701480712
9.405,0.10944419274208303
9.41,0.10279596622743303
9.415,0.09778137059375118
9.42,0.09409879461967897
9.425,0.09188099491580622
9.43,0.0911064571157587
9.435,0.09129733780057724
9.44,0.09205851631307878
9.445,0.09323123831672714
9.45,0.0943873284143265
9.455,0.09504047876910253
9.46,0.09543438403182816
9.465,0.09639498470634783
9.47,0.09838462515154918
9.475,0.10108688983694045
9.48,0.10380277300258053
9.485,0.10588721346927428
9.49,0.1067917739416701
9.495,0.1063476208214537
9.5,0.1054243355445977
9.505,0.10543320919878765
9.51,0.10668509905969996
9.515,0.10825599661058652
9.52,0.10944441502476096
9.525,0.11004307235565966
9.53,0.109716866609487
9.535,0.10846243847218436
9.54,0.10697947445729185
9.545,0.10581376990715911
9.55,0.1048687952551705
9.555,0.1039690270836195
9.56,0.10343770887386733
9.565,0.10402069654244811
9.57,0.10597835404175678
9.575,0.10842698953453345
9.58,0.11030747657946549
9.585,0.1114423063917853
9.59,0.11199086296187653
9.595,0.11209757630060904
9.6,0.11246855552323945
9.605,0.11379279787420109
9.61,0.11560809791454944
9.615,0.11692094728965369
9.62,0.11744294227958826
9.625,0.11751487816499988
9.63,0.11753282080987124
9.635,0.11786895645612881
9.64,0.11888387062755552
9.645,0.1206361057040488
9.65,0.12256168985082835
9.655,0.12383529083358105
9.66,0.12427768370311695
9.665,0.12445705888003034
9.67,0.12489814630742853
9.675,0.1258178595962862
9.68,0.12742689360504025
9.685,0.1298114120401388
9.69,0.13256808436875916
9.695,0.13492979234524335
9.7,0.13650504506031153
9.705,0.13785941598960566
9.71,0.13999602123299693
9.715,0.1435370104723031
9.72,0.1489589250959523
9.725,0.15682302426822042
9.73,0.16694904428862575
9.735,0.17803858216352805
9.74,0.18840118058341782
9.745,0.19661055655077372
9.75,0.20197938625313092
9.755,0.20488037571915535
9.76,0.20615537405497378
9.765,0.20606395637770544
9.77,0.20373360715008526
9.775,0.19755260804926303
9.78,0.18689028070616617
9.785,0.17352587776700149
9.79,0.16048560092482325
9.795,0.15000304354901386
9.8,0.14306291677249186
9.805,0.13932747705256554
9.81,0.137023970403223
9.815,0.13409778152158608
9.82,0.12949200707719263
9.825,0.12353139450188876
9.83,0.11797942432331944
9.835,0.11467342448106678
9.84,0.1133686410695195
9.845,0.11240462230970467
9.85,0.11142029480411636
9.855,0.11223384540071302
9.86,0.11752174077358049
9.865,0.12802922101315187
9.87,0.13966286776686485
9.875,0.14418944583633805
9.88,0.13359850553170477
9.885,0.10601568141960147
9.89,0.074599228878293
9.895,0.07328325443723145
9.9,0.1444963825074233
9.905,0.3097075155971576
9.91,0.5439322148394405
9.915,0.7741838028447644
9.92,0.9098249956378616
9.925,0.8922431177809714
9.93,0.728356763139955
9.935,0.4836219034081304
9.94,0.24679603765584932
9.945,0.08926509598704382
9.95,0.03397454832738293
9.955,0.05151417713240063
9.96,0.0885572634229429
9.965,0.1047356381530243
9.97,0.09135407751107495
9.975,0.06575478746929606
9.98,0.04934262820786603
9.985,0.048226842883175386
9.99,0.0543417583066516
9.995,0.059718431717322475
10.0,0.06313099332160708
10.005,0.06639024534754466
10.01,0.07045910410626224
10.015,0.07478386518969744
10.02,0.0784835457579331
10.025,0.08181048482357722
10.03,0.08554711663205422
10.035,0.08952781199599019
10.04,0.09307358250490363
10.045,0.09596081398318049
10.05,0.09830094891383102
10.055,0.1003578878380636
10.06,0.10246031822700606
10.065,0.10483880244611708
10.07,0.10777322392297548
10.075,0.11134609927314383
10.08,0.11511118622614137
10.085,0.11885296660796474
10.09,0.1229984627307509
10.095,0.1277038887339214
10.1,0.13262017092800785
10.105,0.13760335761620426
10.11,0.1427312116819962
10.115,0.14798964148114005
10.12,0.15334217090804336
10.125,0.1588440240888839
10.13,0.1648302607726601
10.135,0.17169117965324063
10.14,0.17908115483051204
10.145,0.18613322135076274
10.15,0.19245481511918178
10.155,0.197970346282298
10.16,0.20251423252556044
10.165,0.20639254757241896
10.17,0.21028316983559803
10.175,0.21427625619605065
10.18,0.21778578541185084
10.185,0.21998417874051668
10.19,0.21992194951696625
10.195,0.21676436126702534
10.2,0.20998641091479608
10.205,0.19956629540861964
10.21,0.1865442359599034
10.215,0.17276672071103322
10.22,0.15967700740176793
10.225,0.1480965105517762
10.23,0.1386516778312369
10.235,0.13125743721143998
10.24,0.12489639114735875
10.245,0.11866528244864823
10.25,0.11249407569949134
10.255,0.1069260914109885
10.26,0.10272346531872545
10.265,0.1004777454886399
10.27,0.10043651114372701
10.275,0.10246265972903605
10.28,0.1056828018625761
10.285,0.10869061125176874
10.29,0.11068282146762497
10.295,0.11182867225609719
10.3,0.11254301574323124
10.305,0.11314748458732955
10.31,0.11383469537602443
10.315,0.11439713252029086
10.32,0.11443304879528632
10.325,0.11386938259525765
10.33,0.11300347559311544
10.335,0.11235707804141326
10.34,0.11248288474934272
10.345,0.1135579102204431
10.35,0.11530595952012494
10.355,0.11720657303293625
10.36,0.11853456059944284
10.365,0.11878879271734946
10.37,0.11834888046339645
10.375,0.11810255395365266
10.38,0.11848740095839848
10.385,0.11933075168943412
10.39,0.1202557155155376
10.395,0.12094716397805809
10.4,0.12125770672464717
10.405,0.1211559485098232
10.41,0.12076451996976355
10.415,0.12055188112458955
10.42,0.12098407255163443
10.425,0.12189774519684093
10.43,0.12275842387855242
10.435,0.1233647175608782
10.44,0.12384154256197703
10.445,0.12431269884787102
10.45,0.12489456329883929
10.455,0.12570006726858485
10.46,0.1267064963876469
10.465,0.12771308644887647
10.47,0.12848854157246337
10.475,0.1290471698301367
10.48,0.12962833947700061
10.485,0.13030777680141162
10.49,0.1310142438600562
10.495,0.1318680795121806
10.5,0.13290337568874075
10.505,0.13380476065752173
10.51,0.13468465726021997
10.515,0.13662851141935622
10.52,0.14078812181070793
10.525,0.14743209041012126
10.53,0.156242284050185
10.535,0.16687357685122847
10.54,0.17871568022540366
10.545,0.19042091029312588
10.55,0.20030207435993458
10.555,0.20749258741173005
10.56,0.2123071091048222
10.565,0.2151516110909244
10.57,0.21567396421235682
10.575,0.21320331620545935
10.58,0.2071846561836684
10.585,0.19728837564979235
10.59,0.18430885963443033
10.595,0.17072461878500955
10.6,0.1591957381936099
10.605,0.15076917152529987
10.61,0.1449357494110494
10.615,0.14040580648556109
10.62,0.13549181548785127
10.625,0.12886000057362015
10.63,0.12061942286478348
10.635,0.11279314292065332
10.64,0.10834816624761368
10.645,0.10838710596269889
10.65,0.11022596062115249
10.655,0.11035512124318234
10.66,0.10934245800806315
10.665,0.11139142741735855
10.67,0.11922522939407312
10.675,0.13108336471823268
10.68,0.14091594533221063
10.685,0.13924079486942814
10.69,0.1175048430107944
10.695,0.07969608604909278
10.7,0.05426046676247459
10.705,0.08955999779563027
10.71,0.2246829605633996
10.715,0.4528429402029456
10.72,0.7088481168362777
10.725,0.8955196845429545
10.73,0.934331510801663
10.735,0.8089896338874353
10.74,0.5739522430651962
10.745,0.3222890863166947
10.75,0.1360930002202649
10.755,0.05075416871979871
10.76,0.0485543452727473
10.765,0.08015994992307213
10.77,0.1002426189528345
10.775,0.09297287844675045
10.78,0.07036726474559851
10.785,0.05164954180073165
10.79,0.04561476302095109
10.795,0.04839508636623225
10.8,0.052580928455472964
10.805,0.05533720841427959
10.81,0.058092834482010254
10.815,0.06215744684019589
10.82,0.06721977168758336
10.825,0.07242137725556076
10.83,0.0771548289687475
10.835,0.0814231567489535
10.84,0.08560948916743914
10.845,0.0896749332715446
10.85,0.09323933140594495
10.855,0.0963159770519609
10.86,0.09920026503375728
10.865,0.10204795063914748
10.87,0.10498019105611439
10.875,0.10811359499927267
10.88,0.11141193944670937
10.885,0.11472682060218428
10.89,0.11786881134584158
10.895,0.12078338518525165
10.9,0.12374112909003566
10.905,0.1270804028696608
10.91,0.13095411540242424
10.915,0.13549968174525365
10.92,0.14075678797955607
10.925,0.14637730505575167
10.93,0.1518913642874526
10.935,0.15713140250714092
10.94,0.16218453317019477
10.945,0.16716084713000787
10.95,0.17204424345521027
10.955,0.17674459645200868
10.96,0.18134880730290232
10.965,0.18603327598030914
10.97,0.19073108886774806
10.975,0.19530954562231245
10.98,0.1997844994543149
10.985,0.20387317200229504
10.99,0.2067335355622083
10.995,0.2073987242609335
11.0,0.20512470048307546
11.005,0.1994714982504198
11.01,0.19047201450472587
11.015,0.17874015343051994
11.02,0.1654421305522475
11.025,0.15203444316697287
11.03,0.1395955149732247
11.035,0.1284885197522089
11.04,0.11885162614426903
11.045,0.1108704583413045
11.05,0.10443922948103819
11.055,0.09930779702039993
11.06,0.09564522885118916
11.065,0.09377838345113576
11.07,0.09337881081020928
11.075,0.09351047075077605
11.08,0.09357947733460742
11.085,0.09375155543915134
11.09,0.09424532928355225
11.095,0.09481965557963797
11.1,0.09535828512866026
11.105,0.09623476536402237
11.11,0.09758501450174802
11.115,0.09900134679889516
11.12,0.10036074921171385
11.125,0.10207795500058751
11.13,0.10419895423212301
11.135,0.10611261125964741
11.14,0.10746661346650085
11.145,0.10857289954395642
11.15,0.10961636795747556
11.155,0.11028064527070285
11.16,0.11050717569464304
11.165,0.1107183790370946
11.17,0.11087274812387475
11.175,0.1103051016513722
11.18,0.10895120533580163
11.185,0.10772886890723692
11.19,0.10733219406411372
11.195,0.10757288100256787
11.2,0.10814112469306074
11.205,0.10905986328221134
11.21,0.11008752920926362
11.215,0.11062422428689347
11.22,0.11069921695328669
11.225,0.11117366036177172
11.23,0.11245185841948528
11.235,0.11393526813096239
11.24,0.11515079256139187
11.245,0.1162976731251159
11.25,0.11737833088002565
11.255,0.1179300334004196
11.26,0.11784558314608286
11.265,0.1175715505567839
11.27,0.11736778295178812
11.275,0.11699966516821152
11.28,0.11634805499384365
11.285,0.11581392003391137
11.29,0.11568631570899322
11.295,0.11566505412286966
11.3,0.11563514703045655
11.305,0.11610178473895556
11.31,0.11725745575684525
11.315,0.11874526199024758
11.32,0.1206120883347418
11.325,0.12311746472843246
11.33,0.1256813069446845
11.335,0.12727498680665056
11.34,0.1276493632782701
11.345,0.12764458156477468
11.35,0.12869300648971796
11.355,0.13209306021300837
11.36,0.1385857549122416
11.365,0.1484872687335463
11.37,0.16140107031520143
11.375,0.17562392349989372
11.38,0.18884938195746098
11.385,0.19940914746340457
11.39,0.20636645291590094
11.395,0.20944219364391695
11.4,0.20925689508206338
11.405,0.20660172010527822
11.41,0.20151365676718222
11.415,0.19356162136069105
11.42,0.18259963047223568
11.425,0.16946482545602765
11.43,0.1563436923945367
11.435,0.14571634436930656
11.44,0.13884285769127763
11.445,0.135510999377729
11.45,0.1341377577660947
11.455,0.13208229234462954
11.46,0.12748045583365053
11.465,0.12086297858969823
11.47,0.11450242496345456
11.475,0.11070793817064663
11.48,0.11011602503726668
11.485,0.1110616284688546
11.49,0.11189435919495075
11.495,0.11352904676013022
11.5,0.1180855413661599
11.505,0.12590852704392838
11.51,0.1340659577455779
11.515,0.1357888976269577
11.52,0.12317112916734937
11.525,0.09547873968929321
11.53,0.06832871870617672
11.535,0.07601519508608687
11.54,0.159007869748654
11.545,0.3345044004505963
11.55,0.5698387445049821
11.555,0.7876813884761934
11.56,0.9032035262183966
11.565,0.8667279224131444
11.57,0.690181832997264
11.575,0.44400121772713813
11.58,0.21990684459112358
11.585,0.08194418473625167
11.59,0.04085471442899576
11.595,0.06210128165100035
11.6,0.09429975603149715
11.605,0.10160478916553654
11.61,0.0813521190006565
11.615,0.054428151709004245
11.62,0.04022716104080836
11.625,0.04135411426652165
11.63,0.048137854508598234
11.635,0.05213008764487626
11.64,0.05293443941257677
11.645,0.05421603221332566
11.65,0.057661191700756044
11.655,0.06235338723197378
11.66,0.06720275939548949
11.665,0.07200528049668528
11.67,0.07693127477813502
11.675,0.08184521922867039
11.68,0.08639732001668358
11.685,0.0906573030545694
11.69,0.09503742439805658
11.695,0.09972988650463976
11.7,0.10470050099376975
11.705,0.10970164219260169
11.71,0.11407795468858815
11.715,0.11711193145564484
11.72,0.11851825846246096
11.725,0.11871635364897153
11.73,0.11901552323757822
11.735,0.12085671235454715
11.74,0.12461833016446137
11.745,0.12990773315853774
11.75,0.13630557015523598
11.755,0.14297984106616002
11.76,0.14890588833299914
11.765,0.15405705301097522
11.77,0.15924085904757526
11.775,0.16495590130244525
11.78,0.1711115108800136
11.785,0.17729741888914582
11.79,0.18320942729796236
11.795,0.18899937493163046
11.8,0.1947327459902183
11.805,0.20005768067356783
11.81,0.20504030408756674
11.815,0.21008874313598982
11.82,0.2147183049069152
11.825,0.2176957142560823
11.83,0.2179862714893416
11.835,0.21464600751107457
11.84,0.20694509484508378
11.845,0.1952627637109377
11.85,0.18099489490135193
11.855,0.16559539135000015
11.86,0.15014138494079815
11.865,0.13548260090755435
11.87,0.12252651101274593
11.875,0.11208099783295232
11.88,0.10424351956721582
11.885,0.09859922924722868
11.89,0.09496458244075158
11.895,0.09300303702935461
11.9,0.09172039739732779
11.905,0.09041083926085225
11.91,0.08939925575145286
11.915,0.0893747837724171
11.92,0.09071045926977543
11.925,0.09329758987299624
11.93,0.09646676757626212
11.935,0.09929755232560707
11.94,0.10113948731108446
11.945,0.10188209947642005
11.95,0.10207181098398621
11.955,0.10256507696262263
11.96,0.1038300271738306
11.965,0.10589603142294993
11.97,0.10860543437648319
11.975,0.11136383369542904
11.98,0.1132676232713877
11.985,0.11387698088839157
11.99,0.11342231192771741
11.995,0.11241236573956548
12.0,0.11135285789616302
12.005,0.11054331231449932
12.01,0.11010098272824519
12.015,0.11013240269482463
12.02,0.11049190274265619
12.025,0.11071013798360481
12.03,0.11058881782259443
12.035,0.11036229144774297
12.04,0.11021562537883306
12.045,0.11023371631486636
12.05,0.11060473224498192
12.055,0.11147128098707067
12.06,0.11279527377779329
12.065,0.11437331588431761
12.07,0.11591123808702535
12.075,0.11723619103928155
12.08,0.11823981668245634
12.085,0.11866436574005715
12.09,0.11848031185146873
12.095,0.11824194974953102
12.1,0.1185585399502109
12.105,0.11952464069998128
12.11,0.12078187203168496
12.115,0.12179676859718641
12.12,0.12223737343513758
12.125,0.122234402195262
12.13,0.12222067727724961
12.135,0.12278674972241727
12.14,0.1244651897477185
12.145,0.12706780042692706
12.15,0.12960793292490652
12.155,0.1312009416676326
12.16,0.13158821615870164
12.165,0.1310756012477446
12.17,0.13047009087039724
12.175,0.1305016986646822
12.18,0.13116196233978578
12.185,0.13218832892470617
12.19,0.13393188017967916
12.195,0.1374327630850455
12.2,0.14388932443043612
12.205,0.15372413662001672
12.21,0.16598283189458304
12.215,0.17897097155685351
12.22,0.19091108497172785
12.225,0.19988856862073676
12.23,0.2047130653114807
12.235,0.20606634344609417
12.24,0.20549106205970208
12.245,0.20354661853576145
12.25,0.19967493212752876
12.255,0.19300743654270075
12.26,0.1830911345741207
12.265,0.17077568513100036
12.27,0.1583725195838607
12.275,0.14841027117607494
12.28,0.1420973571772737
12.285,0.1387322161680424
12.29,0.1365334049341771
12.295,0.13400484125828008
12.3,0.1302765117206521
12.305,0.12524350684532085
12.31,0.12060372567233191
12.315,0.11904623180285456
12.32,0.12069501899939322
12.325,0.1223481306774452
12.33,0.12199628480912557
12.335,0.12219912241908328
12.34,0.12720106536477196
12.345,0.13762977509684163
12.35,0.1487356597952138
12.355,0.15215134566236788
12.36,0.13868233176017855
12.365,0.10512018570295352
12.37,0.06749597290226288
12.375,0.06779201152474712
12.38,0.15493461500772773
12.385,0.34562957428322943
12.39,0.5980794418931037
12.395,0.8237348638805009
12.4,0.9310425388547562
12.405,0.8744419384279823
12.41,0.679591200497421
12.415,0.428367430726548
12.42,0.21294800508896974
12.425,0.08975000659371575
12.43,0.060249341472193026
12.435,0.08390614406663109
12.44,0.11050745762493318
12.445,0.11133983261985796
12.45,0.08962945823347844
12.455,0.06578250568549371
12.46,0.05453749809500957
12.465,0.05545454675755775
12.47,0.06019409857638104
12.475,0.06333346272132724
12.48,0.0652477976374767
12.485,0.06792446030982828
12.49,0.07151049862486254
12.495,0.07515409678815398
12.5,0.07865848258244336
12.505,0.08211761518161753
12.51,0.08535613801142344
12.515,0.08838651593430626
12.52,0.09150836414612258
12.525,0.0949205516102871
12.53,0.09873173091154465
12.535,0.10301369401065949
12.54,0.10762731069811896
12.545,0.11217616924854192
12.55,0.11607594468873554
12.555,0.11888586228582118
12.56,0.1207907754711789
12.565,0.12238457246123546
12.57,0.12406254204459852
12.575,0.12607336306055086
12.58,0.12869692294340268
12.585,0.13194909865245194
12.59,0.13561394228389556
12.595,0.13967315594760202
12.6,0.1443280802703251
12.605,0.14968179149980218
12.61,0.15549704228866568
12.615,0.16128532015422187
12.62,0.16685667418850594
12.625,0.172551916835815
12.63,0.17868771481061976
12.635,0.18526141283474704
12.64,0.19219447521403019
12.645,0.1992142029166911
12.65,0.20571457810044053
12.655,0.21113876139490537
12.66,0.21506331241031204
12.665,0.2168450563177469
12.67,0.21567161249001857
12.675,0.21097209194525096
12.68,0.2027557503482298
12.685,0.19169571592991003
12.69,0.17874544776614953
12.695,0.1648058298408531
12.7,0.1509443209697565
12.705,0.1383214436645135
12.71,0.12752531276657308
12.715,0.11842283505118137
12.72,0.11069015715289796
12.725,0.10417343610784868
12.73,0.09891196946086414
12.735,0.0950761568317966
12.74,0.09300533582678991
12.745,0.09314698562360163
12.75,0.09533330291466596
12.755,0.09826440649287546
12.76,0.10059245697220402
12.765,0.10208652163330935
12.77,0.10302556509322769
12.775,0.10353227894355127
12.78,0.10404414668396694
12.785,0.1051058434242759
12.79,0.10646469996211826
12.795,0.10740569648538668
12.8,0.10774425989341295
12.805,0.10783188386898408
12.81,0.10801908068795472
12.815,0.10857324737493251
12.82,0.10989807321428635
12.825,0.11229090915624138
12.83,0.11522530030762093
12.835,0.11749559934527556
12.84,0.11842900611831757
12.845,0.1181584489764017
12.85,0.1167885885582785
12.855,0.11453337555521466
12.86,0.11235191993105588
12.865,0.11121033078193852
12.87,0.1110758649471957
12.875,0.11137046587151345
12.88,0.11195142971938259
12.885,0.11309322966336632
12.89,0.11466163619575159
12.895,0.11593736975910221
12.9,0.11655443035491118
12.905,0.11683766589024909
12.91,0.11694395536169803
12.915,0.11684303139839063
12.92,0.11712672533443173
12.925,0.11846721971669488
12.93,0.12059410156962423
12.935,0.12270312449810918
12.94,0.1241532020000356
12.945,0.12449366373954569
12.95,0.12360346068270398
12.955,0.12181271244161594
12.96,0.1198368682073614
12.965,0.11877014968231552
12.97,0.11941017688640265
12.975,0.121458452993253
12.98,0.12412885660210506
12.985,0.12691876131466695
12.99,0.12931224115920836
12.995,0.13094564973945788
13.0,0.1320992141033556
13.005,0.13307788197980394
13.01,0.13385680099927497
13.015,0.13476591921680986
13.02,0.1365402242313672
13.025,0.13988254222374277
13.03,0.14543516231255152
13.035,0.15343497762854416
13.04,0.16341990272958629
13.045,0.17452059454179933
13.05,0.185284873744475
13.055,0.1938157568291988
13.06,0.19929816537930675
13.065,0.20248115303367442
13.07,0.20410880322286173
13.075,0.20394726909118133
13.08,0.20107160963915166
13.085,0.19444168533060563
13.09,0.18406338161737446
13.095,0.1717391491815618
13.1,0.160150305298662
13.105,0.1515401276198143
13.11,0.1467454268726623
13.115,0.14453086517621555
13.12,0.14251752767836257
13.125,0.1390358130554343
13.13,0.13369239045530634
13.135,0.12738286629744464
13.14,0.12226400516905093
13.145,0.1200837030589845
13.15,0.1202940330816152
13.155,0.12074131166891885
13.16,0.12010996934713686
13.165,0.11981304274387028
13.17,0.12319533786744183
13.175,0.13154262917822415
13.18,0.1412034267821079
13.185,0.14486011849279226
13.19,0.13446685131334152
13.195,0.10707755642929717
13.2,0.07570086094584294
13.205,0.07447215906249983
13.21,0.1451391866870445
13.215,0.30880688715304355
13.22,0.5404263742487956
13.225,0.7669470839643393
13.23,0.9000404821155268
13.235,0.8843348777129337
13.24,0.7256428978196564
13.245,0.4858965920507813
13.25,0.2534703738084722
13.255,0.10002556020532644
13.26,0.04607372316331492
13.265,0.06128368391133822
13.27,0.09504653352314202
13.275,0.10909749529942972
13.28,0.09472742400215406
13.285,0.06920671448623456
13.29,0.05386874183297231
13.295,0.054147330377102
13.3,0.061105613708969435
13.305,0.06595586156577805
13.31,0.0675624072330039
13.315,0.06919153430266835
13.32,0.07297137928848926
13.325,0.07836294916158601
13.33,0.08429220628816346
13.335,0.09031147814847792
13.34,0.0956708305899287
13.345,0.09969689838241948
13.35,0.10292189267960528
13.355,0.10609826349393633
13.36,0.10917151000813104
13.365,0.11213477166831275
13.37,0.11536994964482865
13.375,0.11888191285552947
13.38,0.12223022022773872
13.385,0.12501975495331977
13.39,0.12723982560157
13.395,0.12928309956628595
13.4,0.13136730458139154
13.405,0.13348210254979131
13.41,0.1362535830138434
13.415,0.14044440167385547
13.42,0.14548625043403782
13.425,0.1502540590739973
13.43,0.15475683656781156
13.435,0.159466217732167
13.44,0.16417091378837223
13.445,0.16875471592741423
13.45,0.1738039841940166
13.455,0.17969325189250487
13.46,0.18599140815578552
13.465,0.1920249371379811
13.47,0.19755012429048985
13.475,0.20275581075325258
13.48,0.20778321829386737
13.485,0.2126123669880542
13.49,0.21729139486522217
13.495,0.22135466071509047
13.5,0.2230730796064999
13.505,0.22048289131434476
13.51,0.213140012195074
13.515,0.20208634388087965
13.52,0.18877562335968126
13.525,0.17479553022853747
13.53,0.16165178034529717
13.535,0.14994856311289423
13.54,0.13931325245722942
13.545,0.1293918557428265
13.55,0.12039052037710891
13.555,0.11264850027201324
13.56,0.10628519693758243
13.565,0.10145955124099407
13.57,0.09859478950194674
13.575,0.09796615723186632
13.58,0.09914443690265226
13.585,0.10114268706471077
13.59,0.10297470991021378
13.595,0.10382211823866652
13.6,0.10316663186332593
13.605,0.10138270320637005
13.61,0.09980001310829491
13.615,0.09956609072325202
13.62,0.10068814001355499
13.625,0.1024196254029403
13.63,0.10408450050305044
13.635,0.10528117740695561
13.64,0.10579470763971208
13.645,0.10570629247616467
13.65,0.10544737811173571
13.655,0.1055186036346598
13.66,0.10612943225232747
13.665,0.10720055180424926
13.67,0.10867530440833988
13.675,0.11056565572884183
13.68,0.11261337090993473
13.685,0.11423556522048335
13.69,0.11500385260492713
13.695,0.1149619938787433
13.7,0.11439500719356478
13.705,0.11357716967512001
13.71,0.11284835833776942
13.715,0.11262106729719926
13.72,0.11307590155929352
13.725,0.1139761775373468
13.73,0.11491168120380653
13.735,0.11561220432607532
13.74,0.11599303152070124
13.745,0.11614422246702504
13.75,0.1163864532768743
13.755,0.11706500137222638
13.76,0.11810110784046554
13.765,0.11894994011840947
13.77,0.11917548013772217
13.775,0.11890064299167233
13.78,0.11856104935477492
13.785,0.11846253442427242
13.79,0.11881155425200064
13.795,0.11987753642480432
13.8,0.12166437573361519
13.805,0.12359008041680054
13.81,0.12503283115974598
13.815,0.12620014272791524
13.82,0.12811404910847488
13.825,0.1318766756234794
13.83,0.13825926542456116
13.835,0.1476589063766456
13.84,0.15974796674802116
13.845,0.1729842261652616
13.85,0.18495729017429077
13.855,0.193784913059782
13.86,0.19923488630546568
13.865,0.20231186837246798
13.87,0.20398838255690474
13.875,0.20441930767299307
13.88,0.20267023061001355
13.885,0.19703128408940576
13.89,0.18664543319317378
13.895,0.17316093465733934
13.9,0.15998385229756468
13.905,0.14989859289650234
13.91,0.14372259407892168
13.915,0.1403927543879554
13.92,0.1377462380268987
13.925,0.1338798989012118
13.93,0.12825820963525558
13.935,0.12186186219523237
13.94,0.11676265901832607
13.945,0.1146491911538518
13.95,0.11457779088241753
13.955,0.11346961936743086
13.96,0.11042444260449204
13.965,0.10925391953627483
13.97,0.11496234924666988
13.975,0.12808116937452577
13.98,0.14276054038041958
13.985,0.14875814677307073
13.99,0.13519937735433918
13.995,0.09883587811936308
14.0,0.057955197549623055
14.005,0.05811534837597801
14.01,0.1511876520362378
14.015,0.35442114959656534
14.02,0.6229407865371756
14.025,0.8615141674833747
14.03,0.9714457631302179
14.035,0.9049427884326138
14.04,0.6922397926890469
14.045,0.4227429961653214
14.05,0.1947798275972323
14.055,0.06792387078858375
14.06,0.04278064244135561
14.065,0.07424014892557915
14.07,0.10728523687396468
14.075,0.11116745360068492
14.08,0.0897751623125602
14.085,0.06563193717769486
14.09,0.05520325615682017
14.095,0.05779965738624054
14.1,0.06407055373038155
14.105,0.06848950896201116
14.11,0.07126740666835547
14.115,0.07387845964692749
14.12,0.07703286334232856
14.125,0.08075755736199729
14.13,0.08469142076413762
14.135,0.08888893051897231
14.14,0.09361545781064327
14.145,0.0983893289233813
14.15,0.10261455130491962
14.155,0.10643819343995674
14.16,0.11007237406633999
14.165,0.11342258392141517
14.17,0.11653222435774183
14.175,0.11952947227189366
14.18,0.12254941341639397
14.185,0.12577348170101046
14.19,0.12906532817667826
14.195,0.1322017050801911
14.2,0.13543416195787567
14.205,0.13894759178084182
14.21,0.1424594403148763
14.215,0.14591410077377936
14.22,0.14953607932661042
14.225,0.15326667708077776
14.23,0.15703401854436247
14.235,0.16107999555116906
14.24,0.1656685386741026
14.245,0.17087279516306744
14.25,0.17639942663290986
14.255,0.18166571373312437
14.26,0.18646453452577386
14.265,0.1910036343794933
14.27,0.1952882401694704
14.275,0.19934999493625694
14.28,0.20356416503328315
14.285,0.20799198651858689
14.29,0.21206406596017002
14.295,0.21490221278890376
14.3,0.21535297122278824
14.305,0.2122917888738906
14.31,0.2052364654957405
14.315,0.1944224830411606
14.32,0.1808937296014645
14.325,0.1665182726181185
14.33,0.1529795415874223
14.335,0.1410406323509222
14.34,0.1309845200003594
14.345,0.12269249545670544
14.35,0.11554616955552273
14.355,0.10930928204903169
14.36,0.10453035786195956
14.365,0.10173319544430433
14.37,0.1009289996175696
14.375,0.10162738470633538
14.38,0.1029298802922404
14.385,0.10409178290712848
14.39,0.10482570031674204
14.395,0.10505722028672458
14.4,0.10518496974281874
14.405,0.1060616731469359
14.41,0.10792900750229246
14.415,0.11023713934790112
14.42,0.11258659617149466
14.425,0.11476458416348724
14.43,0.11636656166899362
14.435,0.11720226160229513
14.44,0.11752847479975786
14.445,0.1177938178844149
14.45,0.11838273991218236
14.455,0.11920746229993735
14.46,0.1198454023732888
14.465,0.1202773480350105
14.47,0.12065349705353179
14.475,0.12080128206493045
14.48,0.1209600418660698
14.485,0.12186919052076876
14.49,0.12354709179220259
14.495,0.12533547558750538
14.5,0.1268909833778507
14.505,0.12801119346535994
14.51,0.12841495102798642
14.515,0.12830864447271836
14.52,0.12827271792703104
14.525,0.1286228942399997
14.53,0.12922380519603616
14.535,0.1295647974470914
14.54,0.12934295661981768
14.545,0.12906437268863585
14.55,0.12930980646573526
14.555,0.12998658752928616
14.56,0.13100276010873607
14.565,0.13238445493747175
14.57,0.133436512067233
14.575,0.13334767466429553
14.58,0.13241520667859152
14.585,0.13150795378692448
14.59,0.13102409912927934
14.595,0.13097127414227308
14.6,0.13126714074172954
14.605,0.1317761139324234
14.61,0.13248653209014186
14.615,0.1337028700664111
14.62,0.13619247892452216
14.625,0.14101957380243277
14.63,0.14874649857892347
14.635,0.15898921237361946
14.64,0.1708762574721903
14.645,0.1831873337255108
14.65,0.1941274423762384
14.655,0.20210210824523914
14.66,0.20684116175926082
14.665,0.20913168879243763
14.67,0.20956016398082808
14.675,0.2077924758112571
14.68,0.20284589245575138
14.685,0.1939585628725513
14.69,0.18147776842193603
14.695,0.16720928971222776
14.7,0.1539028851877373
14.705,0.14389852699494413
14.71,0.13773481778812102
14.715,0.13404209677450327
14.72,0.13081851043699413
14.725,0.12665604533036692
14.73,0.12121942272089262
14.735,0.11554299859912044
14.74,0.11171994792315566
14.745,0.1109699930552407
14.75,0.11184559927379423
14.755,0.11177229396481088
14.76,0.11066954228643297
14.765,0.11155892274091483
14.77,0.11706359924467644
14.775,0.1261511321074667
14.78,0.1336736130829299
14.785,0.1315247501062995
14.79,0.11254318549852944
14.795,0.08011529575345344
14.8,0.05843582505856008
14.805,0.08933208172781353
14.81,0.20851430662239473
14.815,0.4143842133741196
14.82,0.6540703425990233
14.825,0.8415198227002865
14.83,0.90010923192363
14.835,0.8042359680158708
14.84,0.5934691018809543
14.845,0.35056784108810235
14.85,0.15780343751593093
14.855,0.05815697028999316
14.86,0.042958156180352224
14.865,0.06939404403813021
14.87,0.09240975286856787
14.875,0.08983619835395742
14.88,0.06773739895758564
14.885,0.04610939435925712
14.89,0.03834199543759373
14.895,0.04256477247258854
14.9,0.0494913480115601
14.905,0.05362621483413011
14.91,0.05570689117518783
14.915,0.05821751513587444
14.92,0.061784437452901776
14.925,0.06563558467559477
14.93,0.06960446765355933
14.935,0.0742421339447273
14.94,0.07954971348088198
14.945,0.0849929781734317
14.95,0.09030592576953428
14.955,0.09530921939968902
14.96,0.09964121896835951
14.965,0.10319648464084731
14.97,0.10621679716758295
14.975,0.10891075551560307
14.98,0.11127780670579547
14.985,0.11317522466110819
14.99,0.1146786411863904
14.995,0.11629769972343225
15.0,0.11846839854121544
15.005,0.12129219675581614
15.01,0.12496465183801599
15.015,0.12959292777971837
15.02,0.13473902969830412
15.025,0.14003380366575133
15.03,0.14571678347339623
15.035,0.15197856072831062
15.04,0.15847357631919104
15.045,0.16478829162308375
15.05,0.17094317001885173
15.055,0.17724771118512755
15.06,0.1836204591478392
15.065,0.18936192882587868
15.07,0.1939956401896958
15.075,0.19777287659047932
15.08,0.2010638778261681
15.085,0.20408987116922694
15.09,0.20702187392356527
15.095,0.20920834082781292
15.1,0.2087661353362948
15.105,0.20389908125677864
15.11,0.19434071001828798
15.115,0.18132312959084435
15.12,0.1665871246861807
15.125,0.1515927775794199
15.13,0.13746580402710226
15.135,0.12497133915004291
15.14,0.11412669405150909
15.145,0.10477190613239602
15.15,0.09763669039028024
15.155,0.09337612258692309
15.16,0.09098700235838451
15.165,0.08898914654472438
15.17,0.08735028327037465
15.175,0.08677977621980908
15.18,0.08729700158345768
15.185,0.08847436892887157
15.19,0.09004628222041322
15.195,0.09179371779286519
15.2,0.09344970307734152
15.205,0.09497002869249754
15.21,0.09670439712262098
15.215,0.09899354006765441
15.22,0.10160987480760555
15.225,0.10403591263929493
15.23,0.10611395568556979
15.235,0.10791636468149722
15.24,0.10940654156504054
15.245,0.11062243933599772
15.25,0.11173295641121336
15.255,0.11276390198909066
15.26,0.11352996203389087
15.265,0.1139029706953233
15.27,0.11415232962128392
15.275,0.11464160760443931
15.28,0.11501485945627225
15.285,0.11458369455018104
15.29,0.11358186596106458
15.295,0.11283771987068535
15.3,0.1126300049440879
15.305,0.11295914596914847
15.31,0.11396891943234193
15.315,0.11541013640152574
15.32,0.11670191135113693
15.325,0.1175816724991523
15.33,0.11819550641066094
15.335,0.11896924650451135
15.34,0.12021422050849755
15.345,0.12156007717425668
15.35,0.12245357814568301
15.355,0.12292122195270931
15.36,0.12319444913917985
15.365,0.12351138751933391
15.37,0.12435549282702071
15.375,0.12573200751709923
15.38,0.1268097085649771
15.385,0.12698892756845717
15.39,0.1264334604313672
15.395,0.12572808851971493
15.4,0.1256599326247442
15.405,0.12654076952720686
15.41,0.12780271100736068
15.415,0.12893397586663735
15.42,0.13001932412321765
15.425,0.1315337960080297
15.43,0.13478112706885992
15.435,0.14152680951088972
15.44,0.15229042400314827
15.445,0.1659240971414053
15.45,0.18039007630994752
15.455,0.1931744353185294
15.46,0.20225538758968753
15.465,0.20714466838835335
15.47,0.20851660585989107
15.475,0.207571427663103
15.48,0.20532249035650288
15.485,0.20129788175103236
15.49,0.19401759680770092
15.495,0.1831287394493706
15.5,0.16981623296862983
15.505,0.156079442416224
15.51,0.14439605862198387
15.515,0.1363621965486045
15.52,0.13158694811881488
15.525,0.12865765155077372
15.53,0.12598997470643583
15.535,0.12238147827464012
15.54,0.1183318485596773
15.545,0.11546093658983214
15.55,0.11448463665286297
15.555,0.11512459005195565
15.56,0.11623589509882715
15.565,0.11608485918594717
15.57,0.11557085014708189
15.575,0.11883975506561063
15.58,0.1275985525877937
15.585,0.1379741249652494
15.59,0.1429569383576734
15.595,0.13450336856564335
15.6,0.10863997754378057
15.605,0.0769117429224833
15.61,0.07294291974350522
15.615,0.14183651820950546
15.62,0.31050607258815593
15.625,0.5538620561885612
15.63,0.7909611654456791
15.635,0.9261263848682173
15.64,0.9015988718168229
15.645,0.7249601885874665
15.65,0.46638399257445895
15.655,0.22598135314058598
15.66,0.07944376574841612
15.665,0.04088149415240282
15.67,0.07081354574465056
15.675,0.1114017345833117
15.68,0.12178878623590488
15.685,0.09853419001521498
15.69,0.06711036149057713
15.695,0.05111909077538675
15.7,0.05266019297273065
15.705,0.05994633414400373
15.71,0.06423771529407384
15.715,0.06618177753300002
15.72,0.06972254037268519
15.725,0.07486394887454295
15.73,0.07908481044230373
15.735,0.08229140121290475
15.74,0.08594047839605055
15.745,0.09013619760592134
15.75,0.09458412884835976
15.755,0.09956968332223183
15.76,0.10493656453462677
15.765,0.11002653028515498
15.77,0.11419142938003012
15.775,0.11700865024020703
15.78,0.11886113546169495
15.785,0.12045789417954267
15.79,0.12182903123802846
15.795,0.12317432180916195
15.8,0.12537034810846706
15.805,0.12851427378806965
15.81,0.13180927971056902
15.815,0.1349545928768459
15.82,0.13805835290814988
15.825,0.14109479724764684
15.83,0.144377819099593
15.835,0.14856531724914224
15.84,0.15406522818028853
15.845,0.16079126752909464
15.85,0.1680806203837907
15.855,0.1750562899466951
15.86,0.1812258418454171
15.865,0.1863033513599799
15.87,0.19016917297707486
15.875,0.1935232683764943
15.88,0.19746584638161996
15.885,0.20228493968713057
15.89,0.20746517732985892
15.895,0.21220844988924964
15.9,0.21529598594333366
15.905,0.21522924882821504
15.91,0.21094176552722516
15.915,0.20233113291423463
15.92,0.1903425501530415
15.925,0.17638793428186805
15.93,0.1616129372155031
15.935,0.14701876444007275
15.94,0.13369903262993502
15.945,0.12228860685981238
15.95,0.11270805919378903
15.955,0.10468063894019287
15.96,0.09802888353579921
15.965,0.09269509792264476
15.97,0.08885501386126468
15.975,0.08680673437926564
15.98,0.08671817904639259
15.985,0.08847336868925282
15.99,0.09150335261857212
15.995,0.09492165523261488
16.0,0.09800756293990304
16.005,0.10035946536854586
16.01,0.10182636982069734
16.015,0.10270705897321669
16.02,0.10372128048412242
16.025,0.10543530600083093
16.03,0.10779864913386053
16.035,0.11025282673080329
16.04,0.11220178941993525
16.045,0.11333883725774359
16.05,0.11361551175495195
16.055,0.11327875779759403
16.06,0.11296885957318893
16.065,0.11322671736577705
16.07,0.1138803706547165
16.075,0.11434356391924574
16.08,0.11430707151316014
16.085,0.1138667134533885
16.09,0.11329240971236178
16.095,0.1128085433224686
16.1,0.11246045002698077
16.105,0.11217859600464626
16.11,0.11185254920713515
16.115,0.1114028556125114
16.12,0.11106354896117766
16.125,0.11127934844397241
16.13,0.11199828104611297
16.135,0.1126124919994176
16.14,0.11280010747748292
16.145,0.11285376816364225
16.15,0.11326069849896968
16.155,0.11441333035215343
16.16,0.11639241701460801
16.165,0.11865737417447283
16.17,0.120191492133433
16.175,0.12019792572713893
16.18,0.11880912973903134
16.185,0.11716701035493098
16.19,0.11649083411315597
16.195,0.11701783764270236
16.2,0.11817377451994124
16.205,0.11936232128789202
16.21,0.12001331054680489
16.215,0.11962376287484529
16.22,0.1185471804458657
16.225,0.1179193268368424
16.23,0.11826426653295284
16.235,0.11926312754177724
16.24,0.12115360639524952
16.245,0.1250318168233484
16.25,0.13169142897440697
16.255,0.14122633396879541
16.26,0.15325491709129216
16.265,0.16648485194540466
16.27,0.178643680558083
16.275,0.1875988086749056
16.28,0.1925275483884873
16.285,0.19424799486996658
16.29,0.1943402985275881
16.295,0.19338065382477665
16.3,0.19032425126839975
16.305,0.18376751304055083
16.31,0.17316919858145202
16.315,0.15948036958011194
16.32,0.14552909447258924
16.325,0.13466558352916272
16.33,0.128205552893596
16.335,0.12491062375692992
16.34,0.1225252848456152
16.345,0.11910011016005533
16.35,0.1138766160409734
16.355,0.10771108451011405
16.36,0.10257647841174365
16.365,0.10047429918289903
16.37,0.10153427431394862
16.375,0.10300347266732433
16.38,0.10249807298569667
16.385,0.10185285149660105
16.39,0.10487873606496993
16.395,0.1126282694048805
16.4,0.12245101103972521
16.405,0.12815570082073127
16.41,0.12039971225972793
16.415,0.09332632909424264
16.42,0.05688575231630518
16.425,0.04410414084085718
16.43,0.1006086833054283
16.435,0.2533983477743711
16.44,0.479941139915739
16.445,0.7087843954938291
16.45,0.8538098246076571
16.455,0.8561768871607826
16.46,0.7135828437648879
16.465,0.48417518405903903
16.47,0.256143270574225
16.475,0.09985865081326613
16.48,0.0376196276552313
16.485,0.0451068637040526
16.49,0.0750055301420856
16.495,0.08859321990255148
16.5,0.07620742431662467
16.505,0.05238405835478372
16.51,0.03544417543369455
16.515,0.03252528658260553
16.52,0.0386792860361859
16.525,0.045619125821394914
16.53,0.04982746923825591
16.535,0.05236074106875179
16.54,0.05452397425391752
16.545,0.05690261077539843
16.55,0.06017391784404891
16.555,0.0645914792001685
16.56,0.06986845621448197
16.565,0.07557155828977476
16.57,0.08099774154042107
16.575,0.08561154571432207
16.58,0.08950809791837168
16.585,0.09296203532778254
16.59,0.0963776913780937
16.595,0.1002690418507199
16.6,0.10438652119066497
16.605,0.10790735984823688
16.61,0.11058843206559706
16.615,0.1125923712418877
16.62,0.11405485524064109
16.625,0.11555971004403252
16.63,0.11784146413692236
16.635,0.12105428635370222
16.64,0.12510216701133306
16.645,0.12994400569949424
16.65,0.1353676212583295
16.655,0.14110837063204607
16.66,0.1469334898956819
16.665,0.15269901875463307
16.67,0.15868213317397067
16.675,0.16509130582903336
16.68,0.1713537636301963
16.685,0.17687986021979027
16.69,0.18176466220722554
16.695,0.1861220239936057
16.7,0.18994564925812724
16.705,0.19363839305449868
16.71,0.19753186576165985
16.715,0.20105642820431596
16.72,0.20262095456048798
16.725,0.2001632293174747
16.73,0.19257804754202534
16.735,0.18078467444881527
16.74,0.1669206315239646
16.745,0.15319065435845364
16.75,0.14137831795866082
16.755,0.13178984633558577
16.76,0.12291818840382177
16.765,0.11345494092322415
16.77,0.10385597144938839
16.775,0.09545637204715707
16.78,0.08937513512696346
16.785,0.08632043923503085
16.79,0.08619074233661835
16.795,0.08775799232273244
16.8,0.08933400676569504
16.805,0.08998836203578228
16.81,0.09009729075689771
16.815,0.09053818177365809
16.82,0.09168629730084576
16.825,0.09358545354249313
16.83,0.09623345813890806
16.835,0.09909409064790814
16.84,0.10130160577856989
16.845,0.1027047624345868
16.85,0.10395264467312047
16.855,0.10562109010689484
16.86,0.10765121962463188
16.865,0.10945707733051915
16.87,0.11058513621191433
16.875,0.11117333656151186
16.88,0.11153908448736403
16.885,0.11189008524620463
16.89,0.11257851493504167
16.895,0.11371127649356315
16.9,0.11464213963936148
16.905,0.11470445592407869
16.91,0.11402335803749723
16.915,0.1131987758113198
16.92,0.11277390743905047
16.925,0.11301426619452797
16.93,0.11377063901587689
16.935,0.11465926337975778
16.94,0.1154016096543772
16.945,0.11600894438607869
16.95,0.11684512830252446
16.955,0.11818365203991524
16.96,0.11960492738585303
16.965,0.1204460997027156
16.97,0.12063199453860506
16.975,0.12045245521623066
16.98,0.12008093757197373
16.985,0.119742881058669
16.99,0.11979845278453156
16.995,0.12046954756881562
17.0,0.12160728199507452
17.005,0.12268315351975867
17.01,0.12330866308845655
17.015,0.12370116178707058
17.02,0.12415220459332073
17.025,0.12453955398177849
17.03,0.12484929581288907
17.035,0.1254485900750756
17.04,0.1267329496213295
17.045,0.12922062838037693
17.05,0.13373458331906393
17.055,0.14102305310456853
17.06,0.1513140461118875
17.065,0.16392271695660005
17.07,0.17712106022659163
17.075,0.18886251359674586
17.08,0.19767370582580146
17.085,0.20304130652111907
17.09,0.20560964761246403
17.095,0.20651019182720265
17.1,0.20574138880129153
17.105,0.20184117542702054
17.11,0.1934666233588013
17.115,0.18084155382439013
17.12,0.16602760926132154
17.125,0.15203830752066066
17.13,0.14121031478750495
17.135,0.1342932167248078
17.14,0.130481805435028
17.145,0.12758738682173437
17.15,0.12332031096829552
17.155,0.11728196032797822
17.16,0.1108930833717985
17.165,0.10591876576114341
17.17,0.10376537406366411
17.175,0.10437637847944208
17.18,0.10556160707713896
17.185,0.10575264528530257
17.19,0.106803914586039
17.195,0.11179462852597478
17.2,0.12068898662366531
17.205,0.12879554597854995
17.21,0.12831841979722727
17.215,0.11225050710093515
17.22,0.08123324175146035
17.225,0.05293299615289461
17.23,0.06619355520391651
17.235,0.16496112112141356
17.24,0.3624357322915729
17.245,0.6156457325537319
17.25,0.8374633766887685
17.255,0.9381236097071284
17.26,0.8710411842057305
17.265,0.6607195171681581
17.27,0.3927642806367266
17.275,0.1661935611823066
17.28,0.04187844848393705
17.285,0.021155508949948255
17.29,0.05885789139612973
17.295,0.09741088455188834
17.3,0.10286112318160864
17.305,0.07927160863520884
17.31,0.052380545846640765
17.315,0.04134255319454126
17.32,0.045345800126982215
17.325,0.05264191925583741
17.33,0.0563468851814353
17.335,0.058429303075822614
17.34,0.06230092513292027
17.345,0.06788138182131549
17.35,0.07357632258453917
17.355,0.07856840000041519
17.36,0.0826451568526998
17.365,0.08576706812065621
17.37,0.08813305567929725
17.375,0.09044489164191202
17.38,0.09374019027142072
17.385,0.09833097940887753
17.39,0.10347391029393437
17.395,0.10851106470857219
17.4,0.11334677543115662
17.405,0.11782133563666247
17.41,0.12165175250697192
17.415,0.12476577989482275
17.42,0.12729332126954107
17.425,0.1296346681296101
17.43,0.13247668440574312
17.435,0.13651463255556515
17.44,0.14210080924620466
17.445,0.14868276808351683
17.45,0.1548398017892741
17.455,0.1597053519506616
17.46,0.1637885187924709
17.465,0.16798077875874637
17.47,0.1729066786414589
17.475,0.17909765109375453
17.48,0.18634500894113207
17.485,0.19332215979428227
17.49,0.19887062862706453
17.495,0.2031065329227246
17.5,0.2070074608940456
17.505,0.21140473001911744
17.51,0.21613228590993827
17.515,0.2199101175197786
17.52,0.22116602026908813
17.525,0.21872985202770098
17.53,0.21212430056286113
17.535,0.2020617027038911
17.54,0.19029589801722366
17.545,0.17839118247741628
17.55,0.1670560476868766
17.555,0.15659376075594947
17.56,0.14724199125003384
17.565,0.13910510318858357
17.57,0.1321180337390715
17.575,0.1261072246921175
17.58,0.12102190966215197
17.585,0.11707205967868868
17.59,0.11447951470055999
17.595,0.11334989940395533
17.6,0.11374848092306797
17.605,0.11544337379929864
17.61,0.11777479012529192
17.615,0.12012446871619512
17.62,0.12222012803402177
17.625,0.12395382316117576
17.63,0.1252704187147938
17.635,0.1262306649944071
17.64,0.12714362547900293
17.645,0.12862689632655966
17.65,0.13119468839095683
17.655,0.13475122931633648
17.66,0.13870833358504128
17.665,0.14229630506365726
17.67,0.1446788747742312
17.675,0.14537878754843242
17.68,0.14476429698921425
17.685,0.14377535670583919
17.69,0.1431233042674433
17.695,0.14281671123380918
17.7,0.14248415291521482
17.705,0.1421029543656467
17.71,0.14204556773130445
17.715,0.14249936802237012
17.72,0.1434427962360815
17.725,0.14481078553040078
17.73,0.1460437084952154
17.735,0.1462892112385283
17.74,0.14561781173092792
17.745,0.14512870149545723
17.75,0.1456801592842106
17.755,0.14728065409261518
17.76,0.1494271388687219
17.765,0.15138557754554272
17.77,0.15241111290714862
17.775,0.15211266211068997
17.78,0.1508418238144605
17.785,0.14973642442609222
17.79,0.1497869258316765
17.795,0.1507637698561607
17.8,0.15171877581936025
17.805,0.15215446046413283
17.81,0.15199025555576778
17.815,0.1512326806646882
17.82,0.15032160264805283
17.825,0.14993473218958275
17.83,0.15026328274828069
17.835,0.15123552772919435
17.84,0.15330710706829057
17.845,0.15749063925119086
17.85,0.16465202198060838
17.855,0.1748465705431246
17.86,0.1872653938447205
17.865,0.20051595523551854
17.87,0.2125383069912107
17.875,0.22104788436432793
17.88,0.2253692010661736
17.885,0.22721655923988496
17.89,0.22844845306508096
17.895,0.22866714582034636
17.9,0.2256100418708065
17.905,0.21708154720426734
17.91,0.2025754571730717
17.915,0.18421685495093576
17.92,0.16630837835325168
17.925,0.15320087650175665
17.93,0.14684614439338634
17.935,0.14569456754585
17.94,0.1458758306555534
17.945,0.14394143312308924
17.95,0.13875123570482456
17.955,0.1315593450280594
17.96,0.1254072890440635
17.965,0.12335926564567994
17.97,0.1253062512631108
17.975,0.1274077112062215
17.98,0.1266682150173824
17.985,0.12497180580843115
17.99,0.1267449715570141
17.995,0.13369415392505038
18.0,0.14284327476257747
18.005,0.14738859807829321
18.01,0.13818855405462882
18.015,0.10997033518231289
18.02,0.07456300178955534
18.025,0.06884601796527037
18.03,0.1399828374775832
18.035,0.310833201056555
18.04,0.5521678123872706
18.045,0.7858898781162176
18.05,0.9204195670123875
18.055,0.8987391077641849
18.06,0.7303665896295188
18.065,0.48558875234656057
18.07,0.2558396273618139
18.075,0.1076533743220881
18.08,0.05672999987330472
18.085,0.07187027202977501
18.09,0.10291157800505966
18.095,0.11396348534714787
18.1,0.09942114704551565
18.105,0.07522728323245181
18.11,0.058585239973020876
18.115,0.054608415113279796
18.12,0.057773460823803996
18.125,0.06179119654866525
18.13,0.06540997225457407
18.135,0.06989532252439631
18.14,0.07521671716234157
18.145,0.08027351064428298
18.15,0.0844801050570842
18.155,0.0879842678431783
18.16,0.0913190213233182
18.165,0.09498979376882315
18.17,0.09904154098717217
18.175,0.10312925876568142
18.18,0.10680747715072338
18.185,0.10973061666297901
18.19,0.11199070342432987
18.195,0.11408766812620973
18.2,0.11638764527387345
18.205,0.11892335885927176
18.21,0.12141061896927707
18.215,0.12316492438808374
18.22,0.12374580423826934
18.225,0.12388518097641806
18.23,0.12510892322416559
18.235,0.12851742811055933
18.24,0.13415557341710269
18.245,0.14107546601716567
18.25,0.14791384739057356
18.255,0.1536851141477137
18.26,0.15808504989278882
18.265,0.16154760440284618
18.27,0.1652312797860657
18.275,0.17008673832727592
18.28,0.1758306710299645
18.285,0.18155776525544864
18.29,0.18680752095729483
18.295,0.19143197387270078
18.3,0.1953858409332281
18.305,0.19896164590022583
18.31,0.20224156174405747
18.315,0.20430529392103883
18.32,0.203606003408651
18.325,0.1989435297121564
18.33,0.18998817286210412
18.335,0.17730047020625586
18.34,0.1620500652637561
18.345,0.1457780428972369
18.35,0.130218839699609
18.355,0.11669717179829381
18.36,0.10558650053629731
18.365,0.09669365672624304
18.37,0.08984546676529231
18.375,0.08477563664197871
18.38,0.08096597321476752
18.385,0.07805536862256302
18.39,0.07620852031126128
18.395,0.07575517956047764
18.4,0.07651344296168
18.405,0.07792559657165278
18.41,0.07978077258328387
18.415,0.08198869059766105
18.42,0.08393970641540957
18.425,0.08523767355078848
18.43,0.08644539037287392
18.435,0.08798650769488871
18.44,0.08935012165064936
18.445,0.09017717801793447
18.45,0.09084426500114731
18.455,0.0916237766221268
18.46,0.09241050216980243
18.465,0.09323252455479485
18.47,0.09432789744944423
18.475,0.09579711844687692
18.48,0.09726250236801287
18.485,0.09810450509409832
18.49,0.09844860771697665
18.495,0.09918401954482964
18.5,0.10047948875001438
18.505,0.10147536423778068
18.51,0.10167406795636555
18.515,0.10123723750428515
18.52,0.10020800347048248
18.525,0.09876514287497981
18.53,0.0976297942324082
18.535,0.09737124725932665
18.54,0.09793955497298643
18.545,0.09898411340045603
18.55,0.10003036986794431
18.555,0.10063769166287785
18.56,0.1007787643682479
18.565,0.10082621887709207
18.57,0.10113602866195753
18.575,0.10167182633108936
18.58,0.10193575932606322
18.585,0.10156528981346277
18.59,0.1010020973485699
18.595,0.10102013024992124
18.6,0.10179387972709317
18.605,0.10299805696487434
18.61,0.10436444480062917
18.615,0.10562258609242302
18.62,0.10637693142004195
18.625,0.10647927507512894
18.63,0.10635512386640081
18.635,0.10675812487983147
18.64,0.10807634346712687
18.645,0.10990297119615274
18.65,0.11146660238899282
18.655,0.11239993250450278
18.66,0.11301837600412311
18.665,0.11418035125730605
18.67,0.11697020744215919
18.675,0.12223073270819987
18.68,0.1303205381705351
18.685,0.14113204990971726
18.69,0.15387423416570803
18.695,0.16686853118368158
18.7,0.1780235581604564
18.705,0.18578944622162327
18.71,0.18986072364904302
18.715,0.19098351727573054
18.72,0.1897985957928467
18.725,0.18594958852180307
18.73,0.1786302069165795
18.735,0.16776865499688537
18.74,0.15448747390553558
18.745,0.14079244819476297
18.75,0.1288900033327397
18.755,0.12030739171017665
18.76,0.11521733268222625
18.765,0.11237956716385782
18.77,0.1099105464472573
18.775,0.10658895405216437
18.78,0.10256815625898019
18.785,0.09895724247073544
18.79,0.0969827894510101
18.795,0.09696584500302663
18.8,0.09753198598202387
18.805,0.09689254675444567
18.81,0.09567193688722365
18.815,0.09717485613482042
18.82,0.10391498424064045
18.825,0.11428645834665573
18.83,0.12219350072673647
18.835,0.1192427845787212
18.84,0.0997038689796833
18.845,0.06924489687139246
18.85,0.0535152533456134
18.855,0.09459944338053353
18.86,0.2264942788927333
18.865,0.4420986612641409
18.87,0.6807875044830004
18.875,0.8521486437358178
18.88,0.8825099532429947
18.885,0.7559381444470615
18.89,0.5245672871851509
18.895,0.2798443636727008
18.9,0.10297894786872036
18.905,0.027628481586841475
18.91,0.034208966178030854
18.915,0.07209810381261716
18.92,0.09400520271327062
18.925,0.08259716154638808
18.93,0.05268109434962111
18.935,0.029696819735417525
18.94,0.02548957486038112
18.945,0.0330476231168632
18.95,0.040344895615872935
18.955,0.043524640619950976
18.96,0.045598820129298424
18.965,0.04852012844456726
18.97,0.05156872533929867
18.975,0.05475063201620769
18.98,0.059428837974405874
18.985,0.06606341944275096
18.99,0.07335978368388517
18.995,0.07964970707218388
19.0,0.08431674844365855
19.005,0.08766254253069937
19.01,0.0900544179849563
19.015,0.09196589891055286
19.02,0.09415293961797742
19.025,0.09684589233657588
19.03,0.09955468435869819
19.035,0.10219534372857401
19.04,0.10526868903216169
19.045,0.1087893298603553
19.05,0.11231182156412452
19.055,0.11587329001942893
19.06,0.11976938023264931
19.065,0.12370673704599343
19.07,0.12713174984424677
19.075,0.13012222464736806
19.08,0.13326283970572356
19.085,0.136970820449304
19.09,0.14153940620887062
19.095,0.14740355915669942
19.1,0.15463876018234762
19.105,0.16243420643349873
19.11,0.16955540657682777
19.115,0.1752648048486898
19.12,0.17977632932154203
19.125,0.1839565190474676
19.13,0.18849115357908292
19.135,0.19327111177120318
19.14,0.19731276643755102
19.145,0.19879255082227834
19.15,0.1956835620101653
19.155,0.187319529184894
19.16,0.17499555515594642
19.165,0.16069448479384782
19.17,0.14606153968638866
19.175,0.13244568013680094
19.18,0.12058677621085089
19.185,0.1102861168739723
19.19,0.10112628827597696
19.195,0.09318340522398973
19.2,0.08682567461568722
19.205,0.08225556051792542
19.21,0.07923713448032853
19.215,0.07721414411603433
19.22,0.07585996555415626
19.225,0.07521415934852752
19.23,0.0752614710374433
19.235,0.07591136769658557
19.24,0.07718847808609079
19.245,0.07897244286579347
19.25,0.08090524361614838
19.255,0.08273828695896848
19.26,0.08443199979134111
19.265,0.08603379346226311
19.27,0.087668041491018
19.275,0.0894676773634757
19.28,0.09148959645035014
19.285,0.09365972924216946
19.29,0.09566080499142783
19.295,0.0971383376954102
19.3,0.0980950485352126
19.305,0.09869097423403186
19.31,0.09883663975859255
19.315,0.09841684764823669
19.32,0.09760593265242441
19.325,0.09669670548344368
19.33,0.09587446170456049
19.335,0.09518674970688368
19.34,0.0946553079401077
19.345,0.0944444634106546
19.35,0.09473030713109404
19.355,0.0954914155796627
19.36,0.09672999612334335
19.365,0.0984940018350896
19.37,0.10039530800195193
19.375,0.10176608399708426
19.38,0.1024335866849693
19.385,0.1027210594329665
19.39,0.1029082020532201
19.395,0.10326681365296411
19.4,0.10424040196335732
19.405,0.10607219168965831
19.41,0.1083992356727843
19.415,0.1104449343189262
19.42,0.11167149394794809
19.425,0.11216449654148565
19.43,0.11226374964473958
19.435,0.11212724485185009
19.44,0.11199892206373424
19.445,0.11244797108395065
19.45,0.11378519057308958
19.455,0.11554844056741756
19.46,0.1170085238811852
19.465,0.11790517248525638
19.47,0.1183518104897358
19.475,0.11846236174700443
19.48,0.11856354415017954
19.485,0.1192670183048023
19.49,0.12078119219199109
19.495,0.12269184179291222
19.5,0.12464939456268724
19.505,0.1264487958355535
19.51,0.12762754732767248
19.515,0.12819186158893867
19.52,0.12941384240867346
19.525,0.1328278894588007
19.53,0.13893104749760068
19.535,0.14752599248944667
19.54,0.15845521958272607
19.545,0.17112436109783766
19.55,0.1836752773370271
19.555,0.19349344763478235
19.56,0.1990514693171543
19.565,0.2009850201965989
19.57,0.200834779655633
19.575,0.1990496906235069
19.58,0.1947121455064306
19.585,0.18677791306311642
19.59,0.17519446742230801
19.595,0.161306459834578
19.6,0.14762608023056248
19.605,0.13691155353602272
19.61,0.13069379949561383
19.615,0.12822637664295797
19.62,0.12715648810409327
19.625,0.12533133161269205
19.63,0.12175831865725496
19.635,0.11687650312325268
19.64,0.1128972695211456
19.645,0.11220751645036904
19.65,0.1140836996165235
19.655,0.115045958452914
19.66,0.11367701816871775
19.665,0.11285745219676295
19.67,0.11630647404142906
19.675,0.12458659040903017
19.68,0.13405376643737268
19.685,0.13715552193056044
19.69,0.12469398455901899
19.695,0.09416915205604025
19.7,0.062412535005101584
19.705,0.06902637760501637
19.71,0.15738894218497715
19.715,0.3404322322847307
19.72,0.5782743604971813
19.725,0.7888521065744697
19.73,0.8876149530751172
19.735,0.8326772002058394
19.74,0.648038769714672
19.745,0.40960917022623927
19.75,0.20311778268395142
19.755,0.08197124441160655
19.76,0.04920723055964564
19.765,0.06851259169354448
19.77,0.09345227858092678
19.775,0.09628477182111317
19.78,0.0782145532438722
19.785,0.05678801959900091
19.79,0.04554960790926733
19.795,0.044920195508522345
19.8,0.04785205993787369
19.805,0.04933661112598423
19.81,0.04963283990498069
19.815,0.05097796482159404
19.82,0.05401588950469276
19.825,0.057920584828606
19.83,0.06213878446422907
19.835,0.06663192676229186
19.84,0.07125406113695862
19.845,0.07581612125573024
19.85,0.08026566694902536
19.855,0.08449175509688259
19.86,0.08834830592101123
19.865,0.091831265173363
19.87,0.09500792774184137
19.875,0.09790855625856215
19.88,0.10053758777597684
19.885,0.10297174060088378
19.89,0.10548438486643992
19.895,0.10840330927365778
19.9,0.11184046429070366
19.905,0.11576305325140987
19.91,0.12008399269716773
19.915,0.12450299155783806
19.92,0.12873110895747722
19.925,0.13302353882034984
19.93,0.13806355396674738
19.935,0.1442564382263804
19.94,0.15131134346417258
19.945,0.15843489512406997
19.95,0.1648709580032648
19.955,0.1702742349044825
19.96,0.1747281206388512
19.965,0.17878680010373818
19.97,0.18339016534754551
19.975,0.18915600792149495
19.98,0.19575506375842483
19.985,0.20219585729188416
19.99,0.20736637820273207
19.995,0.21020711354278587
20.0,0.20989642677561265
20.005,0.20613811223082223
20.01,0.19917726375241063
20.015,0.18952510868399958
20.02,0.17777911902459578
20.025,0.16486106746100423
20.03,0.15213075528636347
20.035,0.1406414498054633
20.04,0.13048527530825466
20.045,0.12137199065261375
20.05,0.1133448719672369
20.055,0.10660042506257408
20.06,0.10124683843240366
20.065,0.09731845408451734
20.07,0.09467666450463857
20.075,0.0931307883783348
20.08,0.09253807560748815
20.085,0.09260574903712633
20.09,0.09331050718048248
20.095,0.0953061755700634
20.1,0.09881646176014312
20.105,0.10284091184860392
20.11,0.10635899640102206
20.115,0.1090593479604228
20.12,0.11060386441643814
20.125,0.11086311111587119
20.13,0.11076125696014609
20.135,0.11151211493043832
20.14,0.11340780733279933
20.145,0.11592429117133518
20.15,0.11833699467860352
20.155,0.12004034929990819
20.16,0.12072253674109215
20.165,0.12047039654178548
20.17,0.11986139331349982
20.175,0.11960335370502603
20.18,0.11967824390706155
20.185,0.11946943744258562
20.19,0.11888068775630052
20.195,0.11833296046496851
20.2,0.11795306635923097
20.205,0.11788340291529381
20.21,0.11870288614562481
20.215,0.12057545492743937
20.22,0.12272847133160196
20.225,0.12433473446054286
20.23,0.12533925494490417
20.235,0.12620620620823028
20.24,0.12722675849862078
20.245,0.1283274875104866
20.25,0.12943465575066598
20.255,0.13054393498762823
20.26,0.13138190590919366
20.265,0.1315874099905838
20.27,0.13122649605278078
20.275,0.1306649251429162
20.28,0.13018593813756674
20.285,0.13004231135603767
20.29,0.13049633346395695
20.295,0.13156482868403147
20.3,0.13290338113398617
20.305,0.13408893170526787
20.31,0.13506845002492196
20.315,0.13614636966244817
20.32,0.13740730342819296
20.325,0.13851022727325818
20.33,0.13908697899603442
20.335,0.1389150926854957
20.34,0.1379930090796368
20.345,0.1369858167990704
20.35,0.13727776786947724
20.355,0.14025296773988286
20.36,0.14660385895857211
20.365,0.1560956066232234
20.37,0.1677420063452603
20.375,0.18017771448906325
20.38,0.19176510491114918
20.385,0.20083629631941902
20.39,0.20660291822035412
20.395,0.20955221319885312
20.4,0.21051980547924162
20.405,0.20973196611792747
20.41,0.2066684684302805
20.415,0.20047122250327837
20.42,0.19088111926101137
20.425,0.1790096020045097
20.43,0.16698131031966082
20.435,0.15696252802224614
20.44,0.15015719001604588
20.445,0.14596037906851667
20.45,0.14243240029831727
20.455,0.13799765603410555
20.46,0.1323119576268842
20.465,0.12613816444841
20.47,0.12127121045482459
20.475,0.11960032721986434
20.48,0.12119781916564526
20.485,0.12381225811237596
20.49,0.12493833698346705
20.495,0.12476474180134682
20.5,0.12662905814215894
20.505,0.13314904184343143
20.51,0.14207267970574228
20.515,0.14698838982642667
20.52,0.1406814800427531
20.525,0.11852639829761337
20.53,0.08642544727399065
20.535,0.07110932070662081
20.54,0.11631664805548887
20.545,0.25602441364094897
20.55,0.4813422136954538
20.555,0.7290433230742623
20.56,0.9055985190864024
20.565,0.9350921428238428
20.57,0.8018268822447112
20.575,0.5605275531811659
20.58,0.30657203000678057
20.585,0.12444689355356776
20.59,0.04821293289288113
20.595,0.05664494169091514
20.6,0.09759458996601864
20.605,0.12212004056169683
20.61,0.11152524037836511
20.615,0.08162583995041736
20.62,0.05950874809495773
20.625,0.05583185822243489
20.63,0.06157085498084337
20.635,0.06559719212298598
20.64,0.06649494107383908
20.645,0.06847883247836496
20.65,0.0736130402088413
20.655,0.08057167897434635
20.66,0.08750493537879292
20.665,0.09349073725711718
20.67,0.09815562492599983
20.675,0.10154937797995132
20.68,0.10419349055350592
20.685,0.10652135582089685
20.69,0.10864906834044144
20.695,0.11082101118942735
20.7,0.11330127132776643
20.705,0.11587612130408091
20.71,0.11827530677872654
20.715,0.12090538410892143
20.72,0.1244198798475176
20.725,0.12872638752765683
20.73,0.13309331569553284
20.735,0.13717805733016486
20.74,0.1412791473802264
20.745,0.1455839006563013
20.75,0.14999546073324277
20.755,0.154768802900828
20.76,0.16039804270288446
20.765,0.16677490730308986
20.77,0.1732481148814903
20.775,0.17947562312081772
20.78,0.1855840018411732
20.785,0.19161788659393394
20.79,0.1973252652042486
20.795,0.2024622075096975
20.8,0.20704414608806734
20.805,0.21123025486215669
20.81,0.21513370397367992
20.815,0.21887016519165536
20.82,0.2224373013478571
20.825,0.22515355869666365
20.83,0.22558296653965565
20.835,0.22251719377479653
20.84,0.21580967402233403
20.845,0.20607709681918068
20.85,0.1941038056657167
20.855,0.18077822850068967
20.86,0.16711057786806083
20.865,0.15399154633909495
20.87,0.14208272641447647
20.875,0.13189229342323713
20.88,0.12367217184385526
20.885,0.11724481140825366
20.89,0.11218506840921844
20.895,0.10827721608258942
20.9,0.10568613457796325
20.905,0.1045925150260612
20.91,0.10477519740214129
20.915,0.10570759895436892
20.92,0.10693634745495466
20.925,0.10817125220413282
20.93,0.10923622816076095
20.935,0.11026690295425277
20.94,0.11175801733381156
20.945,0.11404129500853583
20.95,0.11680197460110778
20.955,0.11935237043366143
20.96,0.12129318530242088
20.965,0.12274176331431312
20.97,0.12405729946790871
20.975,0.12559223991311647
20.98,0.12759944054014566
20.985,0.1299944928648933
20.99,0.13216498710480146
20.995,0.133358114777854
21.0,0.13335093501695033
21.005,0.13257302008116975
21.01,0.13168261204478457
21.015,0.13122445159882454
21.02,0.13149382499550774
21.025,0.13237357180624873
21.03,0.13327653527987668
21.035,0.1334911038747287
21.04,0.13274086478698358
21.045,0.13136965410011286
21.05,0.13002185161314858
21.055,0.1293237132732865
21.06,0.12973670333428874
21.065,0.131262126240607
21.07,0.13320333284989794
21.075,0.13455797016956167
21.08,0.13479914097361423
21.085,0.13418805747393267
21.09,0.13337430774896272
21.095,0.1329137109801748
21.1,0.13318298761697508
21.105,0.13427869401895962
21.11,0.13566936857389997
21.115,0.13647355688681248
21.12,0.13650342794926987
21.125,0.1365024590168014
21.13,0.13714544454743785
21.135,0.1384840122245873
21.14,0.1403994868325798
21.145,0.14278002018874505
21.15,0.1450833601376344
21.155,0.1463695515880296
21.16,0.14631153210915956
21.165,0.14605735897009287
21.17,0.14741708155945524
21.175,0.15119993396141
21.18,0.15724388748196957
21.185,0.16570576304864565
21.19,0.17678207848417066
21.195,0.18939429698378296
21.2,0.20153465049318842
21.205,0.21163553212064817
21.21,0.21889580043433965
21.215,0.22300591203401557
21.22,0.22412776522267397
21.225,0.22257732003177025
21.23,0.21812942326979007
21.235,0.20998709217411984
21.24,0.19802801646321844
21.245,0.18402131219418225
21.25,0.17081440141575593
21.255,0.16040554081187133
21.26,0.15346475246092164
21.265,0.1496161514555026
21.27,0.14706575172242536
21.275,0.14344141590688333
21.28,0.13794410044740785
21.285,0.13161807314815882
21.29,0.12608361800336823
21.295,0.1229641414751079
21.3,0.12269655133901476
21.305,0.12332240642091599
21.31,0.12291995804773183
21.315,0.1230358778292184
21.32,0.12719600261760866
21.325,0.1365247447467764
21.33,0.14776196596115196
21.335,0.1534897440591945
21.34,0.14417568994870142
21.345,0.11527839802494307
21.35,0.07867379525515328
21.355,0.0687966631853698
21.36,0.1312980002161016
21.365,0.29302306683381696
21.37,0.5321358266373704
21.375,0.7750897056176159
21.38,0.9289255249922692
21.385,0.9299246787933919
21.39,0.7780889927045321
21.395,0.5364484887210862
21.4,0.29624178141465995
21.405,0.1303754138498827
21.41,0.06293238138980635
21.415,0.0689253023477341
21.42,0.099498851412092
21.425,0.11497229690983489
21.43,0.1046939311314739
21.435,0.08241092819523954
21.44,0.06594427157357977
21.445,0.0617484062942037
21.45,0.06512808030922652
21.455,0.06928360517581136
21.46,0.07167609233041439
21.465,0.07377359426722759
21.47,0.07738030237137529
21.475,0.08235429491443742
21.48,0.0874931157358963
21.485,0.0921660358361903
21.49,0.09637255514746268
21.495,0.1001665826982112
21.5,0.10365455710700586
21.505,0.10705129934789245
21.51,0.11051132000511887
21.515,0.11400704445048303
21.52,0.117290458932168
21.525,0.12014428238563993
21.53,0.12270966703754821
21.535,0.12526914637656913
21.54,0.12795551179085374
21.545,0.13091523163856417
21.55,0.13423101789036637
21.555,0.1376355008053944
21.56,0.14087648171078826
21.565,0.1442146747823615
21.57,0.1481974919366433
21.575,0.15314008209827126
21.58,0.15888126687050866
21.585,0.16496068761051047
21.59,0.17103431794544
21.595,0.1768589534323545
21.6,0.18206750006478103
21.605,0.1866087330178137
21.61,0.19105263622342344
21.615,0.1958925336084934
21.62,0.20109996420644372
21.625,0.20648697279417935
21.63,0.21175102065583068
21.635,0.21628708398311877
21.64,0.21944740465980453
21.645,0.22078956347941572
21.65,0.22006173625184475
21.655,0.21703439001578795
21.66,0.21121465979935009
21.665,0.20220970461638865
21.67,0.190519358663437
21.675,0.17714257346271953
21.68,0.1627097326026244
21.685,0.14796256581479383
21.69,0.13426850673040422
21.695,0.12281054270541368
21.7,0.11400341537778652
21.705,0.10777486204407134
21.71,0.10375462385305027
21.715,0.10145889102859339
21.72,0.10043409934237885
21.725,0.1000743985694624
21.73,0.09990861624000065
21.735,0.09997916150691126
21.74,0.10022759545866228
21.745,0.1002599128374961
21.75,0.10018876861498466
21.755,0.10049178457232111
21.76,0.10111708205415333
21.765,0.1019520049961576
21.77,0.10343630220224606
21.775,0.10567909572206854
21.78,0.10790115672160634
21.785,0.10938596995803172
21.79,0.11024035802906569
21.795,0.11087453343547005
21.8,0.11121524631288758
21.805,0.11097749768592141
21.81,0.1105692514973756
21.815,0.11078576299283002
21.82,0.11152858024042643
21.825,0.11192285806764848
21.83,0.11163713155852464
21.835,0.11107107447531644
21.84,0.11058928354241865
21.845,0.11037154769073707
21.85,0.11058639808237354
21.855,0.11116301971902554
21.86,0.11163192689391102
21.865,0.11157033681883438
21.87,0.11121787991636851
21.875,0.11126333440330888
21.88,0.11196158459859387
21.885,0.11302267104121302
21.89,0.11422374554301246
21.895,0.11538524526936901
21.9,0.11613323150291756
21.905,0.11637344119280373
21.91,0.11654199695470795
21.915,0.11703275310641297
21.92,0.11770370863045317
21.925,0.11802608372423108
21.93,0.11771360975125293
21.935,0.11709186750435677
21.94,0.11654156665220383
21.945,0.11609058494804221
21.95,0.11598541030199612
21.955,0.11668996882002632
21.96,0.11803863369862945
21.965,0.11942347983928839
21.97,0.12063196189628171
21.975,0.12180754075452967
21.98,0.12312508454092436
21.985,0.12460456403555138
21.99,0.12585933258358456
21.995,0.12661217961597301
22.0,0.12747385556647825
22.005,0.1295653391941545
22.01,0.13392853849356354
22.015,0.1414334793183137
22.02,0.15219927660201615
22.025,0.16526062331516841
22.03,0.17916965683805555
22.035,0.1921389531759885
22.04,0.202128277543319
22.045,0.20798147078732523
22.05,0.20989149222158704
22.055,0.20854756402566824
22.06,0.20451650302719335
22.065,0.19781146339726566
22.07,0.18792922103003876
22.075,0.17524842350769043
22.08,0.16156630194627974
22.085,0.14872235685941
22.09,0.13809471590087305
22.095,0.13082577590046934
22.1,0.12683112491631315
22.105,0.12455471459885574
22.11,0.12233332201953831
22.115,0.11916380387440907
22.12,0.11510937231076987
22.125,0.11160407227157004
22.13,0.1100871058986883
22.135,0.11051901531350472
22.14,0.11165830949707001
22.145,0.11207218700749534
22.15,0.11206074875250309
22.155,0.11477464992733538
22.16,0.122449823723981
22.165,0.13201219688490504
22.17,0.13662708628231784
22.175,0.12910896246978507
22.18,0.10522620880227443
22.185,0.0731671433111415
22.19,0.06307176470377682
22.195,0.11942902942387618
22.2,0.27297854305928754
22.205,0.5081957561816781
22.21,0.7532059618044845
22.215,0.9111002495510501
22.22,0.9145545553637574
22.225,0.76121302273708
22.23,0.5121597305679091
22.235,0.2626258921158364
22.24,0.09481333232006414
22.245,0.03590896201461769
22.25,0.05438551692594513
22.255,0.09346965943582573
22.26,0.10907671437506829
22.265,0.09087471613393779
22.27,0.0595066049648142
22.275,0.040952247924373596
22.28,0.04170526089068751
22.285,0.0503803341148319
22.29,0.05620525423628182
22.295,0.05828922685706627
22.3,0.060550538596448746
22.305,0.0643458899200705
22.31,0.06775015044409062
22.315,0.0700008270158198
22.32,0.0729715157693376
22.325,0.07773341633151637
22.33,0.08325812499855353
22.335,0.08877967825310626
22.34,0.09428889431861205
22.345,0.09928387672882727
22.35,0.10325875217928202
22.355,0.10658057710312975
22.36,0.10995162848027072
22.365,0.11360124157145432
22.37,0.11715668213983413
22.375,0.12031694605170419
22.38,0.12343562413584287
22.385,0.1268080545865583
22.39,0.1300995151826495
22.395,0.13320996907811858
22.4,0.13648711703654584
22.405,0.1398328833480831
22.41,0.14303424719495744
22.415,0.14665735828295473
22.42,0.1514541982618432
22.425,0.15746546319722077
22.43,0.16419626986900776
22.435,0.17108421282522104
22.44,0.17771157880971528
22.445,0.18381267935747977
22.45,0.18923367737031158
22.455,0.19421413569698937
22.46,0.19937201927500314
22.465,0.20485116355893435
22.47,0.20997033705479112
22.475,0.21391269119430514
22.48,0.21598331712494903
22.485,0.21529152409389402
22.49,0.21100469326174967
22.495,0.20291517249913396
22.5,0.1915581059705984
22.505,0.177950590802737
22.51,0.16319639114105697
22.515,0.14827604067972922
22.52,0.1340905193815822
22.525,0.12131669490628047
22.53,0.11027944630839115
22.535,0.10125336284212738
22.54,0.09453710044241513
22.545,0.09005341138209248
22.55,0.08732363041815334
22.555,0.08584045275469984
22.56,0.08520574129008324
22.565,0.08513569531015103
22.57,0.0855068525905906
22.575,0.08634382920911018
22.58,0.08778729868243065
22.585,0.0898510912541462
22.59,0.09211635211926944
22.595,0.09411535413767042
22.6,0.0959921582291147
22.605,0.09822744033740934
22.61,0.10085885085845626
22.615,0.10341716713632156
22.62,0.10544188492588763
22.625,0.10682311178615636
22.63,0.10773396528821132
22.635,0.10836508003854231
22.64,0.10889214403623712
22.645,0.10957215259627336
22.65,0.11046761010306512
22.655,0.11123319192214363
22.66,0.11151515984697877
22.665,0.11124924637433202
22.67,0.11045553912328308
22.675,0.1092458912163607
22.68,0.10805116282779824
22.685,0.1074349082429303
22.69,0.10770783903094816
22.695,0.10883281583693012
22.7,0.1105577132612995
22.705,0.11252422972553637
22.71,0.11422527719564107
22.715,0.1151148164115727
22.72,0.1151564155362581
22.725,0.11505283292280845
22.73,0.11553178776217654
22.735,0.11666674314049366
22.74,0.11807377520968894
22.745,0.11937523189939311
22.75,0.1203860010694766
22.755,0.1211011371523599
22.76,0.12155680904676194
22.765,0.1217608795501135
22.77,0.12168900887024517
22.775,0.12118513637264905
22.78,0.120209237818238
22.785,0.11924908751560173
22.79,0.11879819551916854
22.795,0.11867421862090617
22.8,0.11871242157151143
22.805,0.11939575506417531
22.81,0.12096878799763935
22.815,0.1229459071641934
22.82,0.12489645662900128
22.825,0.1266475579670178
22.83,0.1278998618518812
22.835,0.1285380860226464
22.84,0.12882970339743274
22.845,0.12895187466325828
22.85,0.12886493584579417
22.855,0.12862619021292804
22.86,0.12879202832281758
22.865,0.13079028253469932
22.87,0.136222557039058
22.875,0.14548843814369114
22.88,0.15786862838537893
22.885,0.17213829283381968
22.89,0.18584742005315014
22.895,0.19575052869825305
22.9,0.20051019121086275
22.905,0.2014279366248575
22.91,0.20009967048304478
22.915,0.1970026972882838
22.92,0.1918559517685886
22.925,0.18397194319454724
22.93,0.17309319824625657
22.935,0.16047620786765085
22.94,0.14849873690194482
22.945,0.1393977858767798
22.95,0.13426126642347758
22.955,0.13220602281356306
22.96,0.13086449444642553
22.965,0.12829092342077375
22.97,0.12387625226269205
22.975,0.11822433638783875
22.98,0.11345494152795774
22.985,0.11210026421733103
22.99,0.11407760229614457
22.995,0.11621933817765802
23.0,0.11612690807009414
23.005,0.11542804907534542
23.01,0.11808641158110589
23.015,0.12580060216107336
23.02,0.13568552611667073
23.025,0.14124986457154634
23.03,0.13400912972297874
23.035,0.10841373527500271
23.04,0.07409688330553964
23.045,0.0646657594176674
23.05,0.12527659962391896
23.055,0.2812717046300968
23.06,0.5109661981819877
23.065,0.7439168236247385
23.07,0.8910535386113146
23.075,0.8921352992708569
23.08,0.7486579394220528
23.085,0.520196943614935
23.09,0.2914786558727569
23.095,0.13164864963774675
23.1,0.06492197443442403
23.105,0.06777730037278071
23.11,0.09364365975159415
23.115,0.10537787869117463
23.12,0.09317921602232555
23.125,0.07037709045214811
23.13,0.05458366781080869
23.135,0.051512424744272596
23.14,0.05504039165270719
23.145,0.058147465779677374
23.15,0.05948741495139469
23.155,0.06130014439531482
23.16,0.06511598270926652
23.165,0.07019584392279352
23.17,0.07497052825745126
23.175,0.07894605682677375
23.18,0.08262336217375618
23.185,0.08643174127058911
23.19,0.09056994479212115
23.195,0.09504927821595927
23.2,0.0994754158606857
23.205,0.10343143618042829
23.21,0.10691381482065226
23.215,0.11010208561555644
23.22,0.11316821769506472
23.225,0.11624084870163132
23.23,0.11919217266915945
23.235,0.12174128525473443
23.24,0.12385629270719027
23.245,0.1259111989796241
23.25,0.12859270812045084
23.255,0.13238976053252863
23.26,0.13693367411700008
23.265,0.1413683302776719
23.27,0.14534051687044205
