time,ppg_1_green,ppg_1_red,ppg_1_ir,ppg_2_green,ppg_2_red,ppg_2_ir
0.0,0.6029305033627402,0.2802207421911419,0.39586583125645985,0.6152209931868994,1.0,0.7852040339537935
0.005,0.6408243726532925,0.24288321538327148,0.3867254125581923,0.6131482273558821,1.064427042478614,0.795610454813475
0.01,0.5892214892827766,0.28915333328585774,0.3763984988089294,0.621346498272559,0.9716499079312104,0.752263235562056
0.015,0.5542990809236166,0.30880670348747014,0.368577327253966,0.6250407164312174,0.9077279348502726,0.7109887353861825
0.02,0.5683273389997252,0.27951506749450145,0.3649222689245112,0.6200565389662822,0.9218993274439499,0.6888614896524433
0.025,0.5795613558424593,0.2604039617837774,0.36250980203301697,0.6150793594035014,0.9169137442370728,0.6574372186561358
0.03,0.5611905875522157,0.26968921729060813,0.35771460778904596,0.6155020457731826,0.8492771186254329,0.6019721098537016
0.035,0.5454183737060541,0.26743205866683734,0.35175281616692644,0.6157272895318687,0.7835356554710006,0.5418346709791361
0.04,0.5528521627511368,0.24365544326872238,0.34883593079304037,0.6087856096086713,0.7569937378478536,0.4920579566150402
0.045,0.5598189853186173,0.23435345395550625,0.34912439644937543,0.5952648933289444,0.725585777056955,0.4433301619323439
0.05,0.5486024869764364,0.24826886384595356,0.3479382083965002,0.5797816105952766,0.6637314178460242,0.38866716861296
0.055,0.536330333090601,0.25195926700016036,0.34301817304965554,0.5643594373734997,0.611168441953934,0.34003278686610466
0.06,0.5377481734754762,0.23520941566577,0.3380905870559863,0.5484710039446432,0.5922375608991575,0.3070202010544376
0.065,0.5406534778266603,0.22744803487069587,0.33691772488677046,0.5320393663896951,0.5746881097917829,0.28153817141263454
0.07,0.5339580342886642,0.23919335129388697,0.33780095113410136,0.5158400780295102,0.5382382976950358,0.2548183265980036
0.075,0.5271725583819388,0.24414863703083176,0.33710381120215877,0.5007914621888471,0.5116151268688202,0.2318317834585168
0.08,0.5281357353676434,0.23140413185923753,0.3347811405398167,0.4877528355926192,0.5121332264305489,0.21849053842292096
0.085,0.5285935808264997,0.22422790615109295,0.3327207997793255,0.4764412596673777,0.5111860778733234,0.20922016032438717
0.09,0.5235553118397501,0.23385166181946765,0.3305932899986361,0.4649623534356834,0.4889359551497936,0.19723950028096426
0.095,0.5215469669657637,0.24073670220227203,0.3276644823495915,0.4525428501385349,0.4689144216170488,0.18572645986807135
0.1,0.5260148702482134,0.2350128986614408,0.32631997311989275,0.4417025855244194,0.4703677941727857,0.18000778010982207
0.105,0.5274653366177801,0.23305060644203524,0.32884506776229344,0.4349101174789905,0.47434274311283153,0.17780139087665411
0.11,0.5220203861103497,0.24073181145801967,0.3322520491671753,0.4302997258708645,0.4639145626211333,0.17463789760534135
0.115,0.5185890594566936,0.24030068518473635,0.3316310674579646,0.42426603918481953,0.4551796202807397,0.1716037266052061
0.12,0.5211274960446245,0.22725678235895905,0.32802203802583685,0.4173426768997694,0.46245467050140904,0.17169230632008223
0.125,0.522019290127812,0.2224906047328644,0.32740144996840426,0.41328079902745973,0.47072100614468115,0.1743557375765396
0.13,0.5186200667709631,0.23373553813497658,0.33141946459528676,0.4125704372453425,0.4668072642625812,0.17786615261941408
0.135,0.5186409354854529,0.24081849225123086,0.33474674645682956,0.4114444588030825,0.4639534301864493,0.18198972268459765
0.14,0.5237730432398442,0.23357475149529908,0.33330922028166515,0.40806621199804805,0.47350568963368544,0.18617977080906845
0.145,0.5250064472588858,0.22969940849660067,0.33001079226030544,0.40547506271008876,0.483570840903125,0.19044955348905576
0.15,0.5196502588584423,0.23932138509936854,0.32952654348889887,0.4068313101727798,0.48558834562965425,0.19850996775045548
0.155,0.517086129903989,0.24533626341532005,0.3318035997449178,0.41114852021874243,0.4921780393682238,0.2135724193015495
0.16,0.5223134364466229,0.23681728206254185,0.3342446018650511,0.4154829735557645,0.5100506439915758,0.23113433176496764
0.165,0.5284696873419464,0.23098305932279062,0.336725534784799,0.41861880689022757,0.5240631819172604,0.24339624076752997
0.17,0.5304583649178274,0.2419317264198194,0.3401600119763555,0.4209600232492011,0.5260655137502849,0.2507001095650881
0.175,0.5321808686045545,0.25467088094395035,0.3425954790576516,0.42308801774591165,0.5316365231102044,0.2603357434103854
0.18,0.5359996812298453,0.2512090875067985,0.34158139351279654,0.42590613300952146,0.550487682881152,0.2740350086020813
0.185,0.5381794699792143,0.23979554383550356,0.3394591713071971,0.43024077272447764,0.5673114785596755,0.2859788548960091
0.19,0.5385868425721337,0.23799817060553627,0.34167542510422383,0.435092270270865,0.5700987028790117,0.2941874210892695
0.195,0.5424344479083671,0.245491929879593,0.34943991594245305,0.4381357031488481,0.5718377940013771,0.3040922273347035
0.2,0.549214965246779,0.2518989988072688,0.3578488588335356,0.43893744762076087,0.5856815736593896,0.31836131903840237
0.205,0.5519699433691284,0.25551508283509444,0.3623331400160189,0.43976242757297734,0.6024043242070847,0.3323661304030557
0.21,0.5501198329113105,0.2581711770297325,0.36379278379225205,0.44226555547417346,0.6108681687005046,0.34306081303835956
0.215,0.5510984933847534,0.2558280999383337,0.3657907116163597,0.4453978479633275,0.6187067717869909,0.3540381449613687
0.22,0.557056299932357,0.2482194718717062,0.36934892246767576,0.4476704129026972,0.6343910829305778,0.3680890627292352
0.225,0.5617282367858284,0.24495996347108512,0.37284335227052773,0.44950571149713364,0.6490127863919537,0.3823259205911453
0.23,0.5624203667564475,0.250805719716555,0.37543937657614646,0.451994298845514,0.6537764161560627,0.3945768431795202
0.235,0.5635106525721543,0.25741371583085026,0.3780696806772164,0.4549753004076569,0.6574425432802923,0.4077254043522396
0.24,0.5664524297211414,0.25839842214729447,0.38137453890777073,0.45772879906373737,0.6698367395198325,0.4236964086050504
0.245,0.567713530862035,0.2588383122874869,0.3846685909553104,0.4602836420646982,0.6848916217709732,0.439266575709841
0.25,0.5678021224779451,0.26237539035443375,0.3871761838273925,0.4629121108511307,0.6950947597996134,0.451706323221047
0.255,0.5709938084329031,0.2639028143119335,0.3889170775070846,0.4655366354088041,0.7061743903150005,0.4630929397271269
0.26,0.5755150588548089,0.26243092331896267,0.39005057072867366,0.4685764014362223,0.7231188258097554,0.475562049416351
0.265,0.5755956285673023,0.2655510410519454,0.3904768878790819,0.4730648136040986,0.7378830400398533,0.48753677503928877
0.27,0.5732916955631189,0.27370691811298076,0.39059065897615347,0.4788813857610954,0.7448600015871231,0.49795715332265456
0.275,0.5759753757530223,0.2761673981819887,0.3915264251458971,0.4840616723094437,0.7527941360438418,0.5091504915727721
0.28,0.5822212350256288,0.2702524084018388,0.39392878047260804,0.48695291669319907,0.7680770914092814,0.5221793605187439
0.285,0.5833480212179564,0.267983466785166,0.39694412918094335,0.48812731644208374,0.7818951183960545,0.5340957977727318
0.29,0.5791803622405371,0.2754030385103354,0.3990261390134078,0.48932024424689197,0.7869873690378654,0.5430587588839801
0.295,0.5784529773159853,0.28201791118401726,0.3994616007196201,0.4914427989698995,0.7915126093118902,0.5517140317819947
0.3,0.5828081373671677,0.2799288566411371,0.3987149884772688,0.49438437946312125,0.8030159747405881,0.5623179767498242
0.305,0.5847201736850349,0.27708407805784735,0.39768832147531763,0.4976978137237377,0.8138832450911818,0.5727169711350608
0.31,0.5826866845152658,0.28142967906974636,0.39714146382613263,0.5006229030911552,0.8163108192270506,0.5803860710904787
0.315,0.5836185305286148,0.28718705929094995,0.3974169864930888,0.5024073672959943,0.8172761051578883,0.5866506616394883
0.32,0.5878946243271593,0.2873586706456236,0.3980849768143705,0.5034485415650494,0.8249726613167055,0.5936912999195837
0.325,0.5874447123641052,0.28587526354665543,0.39815007974811245,0.5052479121240848,0.8338267600149591,0.600623216521602
0.33,0.5823548860539002,0.2872417587916384,0.3972000557486898,0.5085074881181469,0.8362897115831077,0.6055499873405636
0.335,0.5839475045635888,0.28732521402137284,0.3959312166528397,0.5121601888601497,0.836815512075117,0.6087945790240451
0.34,0.5959276005936451,0.2839356491933856,0.39484088690956604,0.5149212522666605,0.8413467550331388,0.6115300092024946
0.345,0.6069510279690784,0.28365354375692803,0.3931086662376694,0.5167581038033416,0.8451333753554243,0.6135319923982402
0.35,0.6085028143799494,0.2890193444194605,0.39012059411956546,0.518099308434633,0.8432393152334248,0.6143139289845153
0.355,0.6068403301714377,0.291724293697866,0.3876877842735056,0.5187608632617113,0.841177625751877,0.6143690821343155
0.36,0.609938228795381,0.2874025454317357,0.3888718359648981,0.5186902395134848,0.8433925589743021,0.6138206616444505
0.365,0.6148975492589864,0.28427837442792353,0.39421233751358414,0.5187830708880792,0.8432932822705282,0.6119066573264108
0.37,0.6163088882796001,0.28811715271891,0.4007421606281456,0.5197941147514602,0.8362512489215624,0.6086913302562192
0.375,0.6162238882390481,0.2916251907256528,0.4053781763198284,0.5212084293575261,0.8300214145940189,0.6050427841168694
0.38,0.6175870522394075,0.2884119282249844,0.4077741409584758,0.5223331134203087,0.8303591788097138,0.6004821722033549
0.385,0.6171455393061342,0.2847449884107192,0.4091749529564272,0.5237510492201345,0.8289043251097669,0.5937031841726901
0.39,0.6127485766817731,0.2870541743786821,0.41040460490394326,0.5263074852494155,0.8180115643855946,0.5855743493415094
0.395,0.6094762709505595,0.28965663993213964,0.4123448087316828,0.5291224408655798,0.8053480549804902,0.5787118246598641
0.4,0.6113575149589533,0.2859108027181947,0.41643947796272224,0.5301701566916667,0.8003847030872646,0.5735805201834888
0.405,0.6145371973001779,0.28109990203887447,0.4224211147501517,0.5289482432267447,0.7980899153870568,0.5678541989611208
0.41,0.6150508846346145,0.2832310253898226,0.4268093935884088,0.5273055822545499,0.790155683381271,0.5601271602659773
0.415,0.6158740916862887,0.2898725641173497,0.4264593206972689,0.5271794673656426,0.7814759626861163,0.5516136492144059
0.42,0.620006566728429,0.29418702351612863,0.4232243227885751,0.5283865537402532,0.78038639489809,0.543867920034291
0.425,0.6238711918664562,0.2961521902885805,0.42230140466963734,0.52923032109625,0.7819554202825993,0.5373040721616622
0.43,0.6239940002903095,0.2988987901699126,0.4256176129918915,0.5288004266843352,0.7764709414544744,0.5319811672870874
0.435,0.6236562180225917,0.30145617247786627,0.4295519054153814,0.5280462151901102,0.7668926916742868,0.5275105834333195
0.44,0.6267841878618788,0.3030435124377056,0.43025178774071027,0.528570318892824,0.7626867428226147,0.5226303960659486
0.445,0.6311987590149472,0.3070372847652399,0.42873045921307634,0.5306897923335245,0.7626142618188595,0.5171916959071076
0.45,0.6335298292018124,0.31361970029384595,0.4287466305733578,0.5329662696013566,0.7586257836884651,0.5135083288190534
0.455,0.6351673111929322,0.31640721640791103,0.43132177774461833,0.53374891835268,0.7520879316710538,0.5131483588999218
0.46,0.6381667016112127,0.313173070739047,0.43396957342507925,0.5329374436950706,0.7515152741101374,0.5140049747025025
0.465,0.6407163093352906,0.31180270609813215,0.43506658993609726,0.5318351838824801,0.7569460723528075,0.5136311262549315
0.47,0.6414850894311566,0.3187738053553085,0.43661428176014183,0.5314240836150838,0.7598670579899329,0.5134171081465653
0.475,0.6431955944881012,0.3295153725856586,0.44164936997557064,0.5314972631833513,0.7574640797714185,0.5156636589760556
0.48,0.6474525426189054,0.33656752681543345,0.45009897057747666,0.5316278627941714,0.7556246339903079,0.5187665131704041
0.485,0.6512000487237614,0.3394405413014739,0.45858877051667657,0.5320784880015523,0.7582477940076259,0.5199264375404007
0.49,0.6523595632469394,0.34026561952884876,0.4644430709004403,0.5331284153242112,0.7628668042181908,0.5205407669577414
0.495,0.6537730353887995,0.3377775233277351,0.4689540965448554,0.5342796346004314,0.7665011734395554,0.5236378152747853
0.5,0.6577625276196315,0.3321369616329389,0.4758005975380957,0.5350885769516234,0.768494680603308,0.5278299743967344
0.505,0.66203632743405,0.3284061078501418,0.48625720379455295,0.5361890844652468,0.768567533748411,0.5297130109256558
0.51,0.6645672268229916,0.32925751462100267,0.4969968078602037,0.5382017748304514,0.7679966384453665,0.5307541037308707
0.515,0.6671653395138244,0.33101226840865855,0.5034588901899483,0.5399912841370856,0.7706929713246172,0.5352476868718373
0.52,0.6707659306807742,0.33160993875872163,0.504806922885095,0.5398016126292949,0.777877028640638,0.5422867617113749
0.525,0.6727293712306425,0.3348805472207203,0.5043887737919319,0.5384358858950518,0.7845792130888186,0.5466970301967314
0.53,0.6723948841185118,0.34223972216058035,0.5055191423647736,0.539247748526471,0.7863060033651175,0.5478315870390553
0.535,0.6737954310230617,0.34810375284654554,0.5082985211729614,0.5436337111462564,0.7856865436998869,0.550395873837699
0.54,0.6791445575214102,0.3484478729713171,0.5109747435800064,0.548258412885788,0.7878953382028806,0.5560306763634305
0.545,0.6848836844156652,0.34636419912726846,0.5128415693716146,0.5489755608060437,0.7934307649643036,0.5611923398368162
0.55,0.6877731722658582,0.3448748365337675,0.5144883596802752,0.5465288585086616,0.7997334171882645,0.5645412272504612
0.555,0.6897293653265149,0.342143914416061,0.5161151297213659,0.5456092995779861,0.8055450927837073,0.5692811960450841
0.56,0.6931237198200085,0.3378984828888772,0.5173040006904606,0.5483304776515023,0.8096942603476325,0.576197202066001
0.565,0.6964736319849838,0.3364527757915718,0.5184139390863435,0.5516568768127589,0.8105675490176274,0.5812662492353972
0.57,0.6984379788074776,0.33930983228173883,0.5206846691543744,0.5522940397657525,0.8104604790521994,0.5829542889156132
0.575,0.7011849974928586,0.34269759067156097,0.5243806504324741,0.55127197799158,0.8146759262136674,0.585635632583798
0.58,0.7062037320774791,0.3456519719588733,0.5279683003678214,0.5516670763040437,0.8228655598790104,0.5925257024380213
0.585,0.711297712629718,0.3518482882667096,0.5301491583566961,0.5540028487906774,0.8282683718406667,0.6006875124445947
0.59,0.7149129880812227,0.36051580354015766,0.5320896770908244,0.5565289506958535,0.8293140868419616,0.6063404661492052
0.595,0.7189062678582093,0.3652626126208758,0.5363665549649911,0.558547756293002,0.8334611319443189,0.6102329924766986
0.6,0.7240859313259043,0.36520541386491495,0.5436513733128043,0.5605490586782494,0.8441817642400916,0.6145825231867431
0.605,0.7277006708021228,0.36698246419234365,0.5515651305817129,0.5619506440420109,0.853307534360303,0.6192346098517707
0.61,0.7283679821944101,0.3722264304649911,0.5573354835844494,0.5618318115079524,0.8538054711693476,0.6239360206583232
0.615,0.7290464477096232,0.3742611728412056,0.560795811893974,0.5616304671790818,0.851778059407776,0.6301361613123964
0.62,0.7323604360699831,0.37155438434684684,0.5640930499389228,0.5638964670456483,0.8567247644336916,0.637546482845031
0.625,0.7372691451408393,0.37242165122406756,0.5690179800758842,0.5680008657228315,0.8668180412618793,0.6429920530307782
0.63,0.7425689079560668,0.38042654908978674,0.5753213995140246,0.5702273567135907,0.8736850154592976,0.6455536307618449
0.635,0.7489938041729417,0.38696041664872344,0.5811643252160652,0.5690921807019458,0.8764467395326521,0.6488547608544722
0.64,0.7557537538506198,0.38587542965774385,0.584580252751412,0.5676349159561095,0.8808378946560385,0.6554032389019625
0.645,0.7599983642740241,0.3847418190315175,0.5851650623668986,0.5689380637563621,0.8879252578879849,0.662642941434155
0.65,0.761826040675452,0.3930393677151702,0.5850977989065707,0.5720325790947169,0.8934572891304516,0.6675868017065583
0.655,0.7647159241560683,0.40828518681987425,0.587546297888586,0.5742463012425231,0.8966011059016541,0.6714805290159533
0.66,0.7691966517749126,0.4223025361410335,0.5929607019635639,0.5753763842238305,0.900812988694366,0.676681840606143
0.665,0.7718245396445612,0.43318235798709986,0.598230408721897,0.5770513839542921,0.906813181127804,0.6825085980734217
0.67,0.7723215005725533,0.4428028327032316,0.6012509367081413,0.5794408370100786,0.911654983363867,0.6874830439351284
0.675,0.7752038031245794,0.44969825400175734,0.6046745477836841,0.5811610710008626,0.9142792025114868,0.6924754428151438
0.68,0.7817565279099393,0.4525929525428924,0.6120576802816617,0.5817469095129156,0.9164821612025849,0.6983957391972271
0.685,0.7872733619241232,0.4554125624428935,0.621541317078099,0.5820753541845273,0.9191465756616003,0.7037126072344831
0.69,0.7896190506910941,0.4619721731919863,0.6278452120835891,0.5827053708969057,0.9219376383790775,0.7073623934466189
0.695,0.7934741739067744,0.4704719312266841,0.6304882846651613,0.5835354030141561,0.925391347443846,0.7113296186631101
0.7,0.8016867779642534,0.4778007246117539,0.6345462198321593,0.5848142285359479,0.9295837424182105,0.7172985224043409
0.705,0.8091884374676667,0.4832700897580913,0.6416132083223789,0.5869954718403904,0.9327401602597851,0.7234007447529219
0.71,0.810940599648404,0.48441977461263663,0.6460258013376843,0.5897749244134148,0.9344883007598118,0.7273751954233779
0.715,0.810002259998431,0.47689720120579215,0.6438963714384563,0.5923845204710713,0.9377678290894228,0.7305572829845292
0.72,0.8117228198635541,0.46307088189686685,0.6403185492395574,0.5944879600910867,0.9441924606531669,0.7356154628364072
0.725,0.8149998910679758,0.4527886095257906,0.6416831303965321,0.5959499151745316,0.9507241621931787,0.7422893422041986
0.73,0.8156742415689568,0.4505652543646014,0.6451616417022666,0.5965093767693541,0.954436804733065,0.7482545937886135
0.735,0.8144345302726355,0.4498463710191585,0.6433302918038365,0.5966666179555832,0.957144208989466,0.7526119045784906
0.74,0.8146178410722066,0.4448662612461751,0.6366340004641653,0.5978389716967698,0.9616354294624446,0.756074232545215
0.745,0.8150184344285785,0.4397620585738252,0.6326300980520301,0.6003282613833599,0.9667788494153513,0.7592066428212034
0.75,0.8114567037078845,0.4401319879658119,0.6332343394806439,0.6022155148644375,0.9701388639551962,0.7625500974683886
0.755,0.8040408862573548,0.4434867765919331,0.6315435481415078,0.6018795051102435,0.9721936097742916,0.7669707814277541
0.76,0.7971711046239698,0.44425884505169905,0.6230638453092683,0.6006278781298879,0.974438944015717,0.7721797490512506
0.765,0.792871343903267,0.44138968165308884,0.6118678076004475,0.6009662902449111,0.9765704818603712,0.776551577718864
0.77,0.7886876441462507,0.4357192879652233,0.6024189766550382,0.6030636672110087,0.9786684712650126,0.7797476863227842
0.775,0.7820551919655241,0.42697192394532985,0.5929610410256285,0.6050222271761679,0.9825237725310142,0.7834451607404731
0.78,0.7732246826766458,0.41798809464260966,0.5815746865464985,0.6061120068006962,0.9877405007267501,0.7881095812990793
0.785,0.7638854424708496,0.41408799433412946,0.5718162014095345,0.6074608304302158,0.9904951295086856,0.7914261574447267
0.79,0.7554110284986202,0.4135753946420212,0.56638067097771,0.609643180320666,0.9891963162656267,0.7914881247238846
0.795,0.7482808374733466,0.4075656781790927,0.5609015633376876,0.6117979256674383,0.986978287493762,0.7890386519362285
0.8,0.7415810525297163,0.3944239193351728,0.5508163012794896,0.6133906194890263,0.9853093115364173,0.7847297667391402
0.805,0.7336463901129578,0.38479625045941196,0.5397563644239686,0.6148633264776273,0.9798613538131449,0.7765730438065431
0.81,0.7242156688812994,0.38556489075549855,0.5336409190480652,0.6161290092348928,0.9665085804236057,0.7621252038190901
0.815,0.7149402461217653,0.38821378874042006,0.5299863770847427,0.6162647746329849,0.9467968701595807,0.7410743660523338
0.82,0.7071956195667949,0.3816503140696913,0.5214871031018519,0.615246215854899,0.9234279337594246,0.7137951401274466
0.825,0.700798089862791,0.3687520923131166,0.5085433497005211,0.6142632006494998,0.8949192358870124,0.6795048378879857
0.83,0.6950268535393448,0.36083737681951294,0.4997074314097023,0.6135743132903426,0.8592111441301027,0.637842105394732
0.835,0.6891075839825058,0.36124318301785013,0.4992577589667835,0.611513392343643,0.8184371945556755,0.590404573162831
0.84,0.6820274825411676,0.36298119868229456,0.5016826534336424,0.6064002658635506,0.7756971364261632,0.5390653205558458
0.845,0.6742503598940571,0.35895267668024144,0.4999108357005839,0.5981975188981018,0.7309637737687765,0.4848315023366871
0.85,0.668818444268826,0.3479387152790072,0.49294609448165055,0.5876380257318736,0.6844307023549443,0.42999665617192
0.855,0.6675280474520502,0.33405287387114857,0.4839540694390818,0.5750634956180964,0.6400853432205087,0.37905843684291424
0.86,0.6669798235569239,0.3250712820768373,0.47634663247266573,0.5609994634639613,0.6017118551810144,0.335354355486403
0.865,0.6625769714110267,0.3268246183354102,0.47315619536772313,0.5466590979603756,0.5688803577083086,0.29857427725890406
0.87,0.655569085366837,0.33520977296955157,0.4749934154610533,0.5327212493979283,0.540544615995689,0.2672665698466136
0.875,0.6510310839284338,0.3390218065991694,0.47728314551608253,0.5183562928655836,0.5184210801019248,0.24161908715576183
0.88,0.6494080931567828,0.3339592102159475,0.4747085276691814,0.5024972866576313,0.502800682608959,0.22181840369632674
0.885,0.646252823560935,0.3270806789101822,0.4692764748133377,0.48563246019571377,0.48939446677847664,0.20594438502704274
0.89,0.6407552860345473,0.32413336001205406,0.46784273188396114,0.4695492757733561,0.4748720108276721,0.19202640777656416
0.895,0.6376961159335407,0.3212349473142512,0.4704594154057561,0.4556556510992606,0.4615992223300002,0.18057227663597902
0.9,0.6391989097301749,0.31439683571895277,0.4689158092334929,0.44417748365443493,0.4525909778047332,0.1727305762007011
0.905,0.6411589863415635,0.3084229230536839,0.4601473714945536,0.4346584291606916,0.4459786889309773,0.16737988287568428
0.91,0.6403764697660113,0.3091881717922416,0.45303703885772734,0.4265698495017444,0.4391164149792293,0.16238475703914887
0.915,0.6389095192626433,0.3143847605815906,0.45583988834978384,0.41946620623873054,0.43394860127526225,0.15766024754522917
0.92,0.6383802032981959,0.3189176901313491,0.463380513916976,0.41295681525843914,0.43316672673827133,0.1548168197676158
0.925,0.6362726955151704,0.3225330124627615,0.46450548903294053,0.4067325496024785,0.4347823001501264,0.15454038534714046
0.93,0.631574278663936,0.32520527094323515,0.4578431703877087,0.4008319184271184,0.43563778206041254,0.15617668349607794
0.935,0.6281341022938125,0.32239364733106407,0.4517668585202614,0.39602813284240096,0.4367705968344379,0.15922281060185692
0.94,0.6282760511588149,0.3130748122368827,0.4512147810957895,0.3934596928946153,0.44023126319433686,0.16354021889039827
0.945,0.628692086340276,0.3059085112243258,0.4531779531218513,0.39319185492278064,0.4442204537592533,0.16855405550714134
0.95,0.6270059513249367,0.30836733673021893,0.45469990841687186,0.3934619404590902,0.4468106542427907,0.17359039877687404
0.955,0.6266339656294632,0.314789648139508,0.45694412911253557,0.3923355150073101,0.45098245904432405,0.17868031643576862
0.96,0.6300541909262469,0.3141913861236697,0.4598658737102196,0.39011949100378623,0.45997671921097405,0.18420170120472612
0.965,0.632971363239508,0.3061163768574803,0.4601693021533606,0.3891176582250603,0.4705018766391786,0.19028562864960671
0.97,0.6313646113897711,0.3000778921942124,0.45742058682969156,0.3907392479889254,0.4767262600926474,0.19715503669540463
0.975,0.6292936698409252,0.3017691727374042,0.45638115328112755,0.39381694727897315,0.47895073880361577,0.2052385314950793
0.98,0.63257423027918,0.307563403531413,0.45992759939860733,0.3962738219957327,0.4824958869380298,0.21440587942237807
0.985,0.6387049378058518,0.3112219948068672,0.46442968057256634,0.39761530298954983,0.4897413929080081,0.22391641071867519
0.99,0.640908504427205,0.30985014685196577,0.46586750986002134,0.399026696045993,0.49889296721568627,0.23344059307762738
0.995,0.639482096279796,0.30455616864707685,0.46652165996608264,0.40149267180931353,0.5089736269367727,0.24317539298924631
1.0,0.6408762479234881,0.3001314877407711,0.4711664227897242,0.40464432291150343,0.5201402877564897,0.25289197145464243
1.005,0.6465780807522526,0.3024275200277701,0.4793118575004321,0.4074746715236032,0.5301119989300804,0.2621674136920799
1.01,0.6510773672241669,0.31217262053633205,0.4858951216317143,0.409652645750467,0.5362116492214377,0.2715911054303812
1.015,0.65150613906636,0.3235089967264925,0.48848742079627466,0.41179220515031223,0.5407608931674449,0.282181513386873
1.02,0.6518434591874588,0.3312883654789476,0.4895986629264906,0.4144737785767111,0.5490649679904507,0.29353643424607045
1.025,0.6554384987471026,0.33613486119652913,0.49197842034905664,0.41739740677219106,0.5617669106252196,0.3043360172794907
1.03,0.659616485982811,0.3397477043939413,0.4952995376345482,0.42000114610694594,0.5740590221333062,0.3148094329202634
1.035,0.660884950466806,0.3405987997327878,0.4982051152436108,0.4227508879615607,0.583052452189485,0.3266687578552364
1.04,0.6607583504024,0.3383361798523036,0.500638064863298,0.4268292826583131,0.5914138757917167,0.34022452583324736
1.045,0.662730873937843,0.3370011689901259,0.5027155810274301,0.4321230157106226,0.6025240654929551,0.3536768196102267
1.05,0.6666532264567847,0.3387292138605427,0.5034109727047018,0.43661218163081883,0.6157632441374262,0.3658818703450815
1.055,0.6698152516083474,0.3389961487500026,0.5022025102938058,0.4388108371364453,0.6281772898639912,0.3778029057352255
1.06,0.6717941067367709,0.3335483110258012,0.5009419451747765,0.4399955153541944,0.6383064605109856,0.39051245543952134
1.065,0.6747467535747884,0.32583911586777364,0.5022699017376391,0.44256485266410095,0.647124510672614,0.40370977026897414
1.07,0.6793421286066814,0.3220431336958307,0.5063927982599955,0.44662547379984996,0.656772331290845,0.4169664504556477
1.075,0.6832093531171688,0.3224718349926364,0.5108333969324587,0.4499175987918271,0.668811063768203,0.4305208621396427
1.08,0.6840596422753737,0.323624202319743,0.5135149930579,0.4512520317586645,0.6824253335196538,0.44403534037502207
1.085,0.6826267007695214,0.3254293801738255,0.5148604782391591,0.45236995430240545,0.6945390247668658,0.45641868188018575
1.09,0.6814791219779696,0.3302879152762322,0.516354374717258,0.45572011858416306,0.7030677964633344,0.46767872177101405
1.095,0.6818582092342623,0.33683184137857847,0.5181924971067945,0.4615357818682636,0.7095823593601618,0.4791361179635116
1.1,0.6829992097156603,0.34032814766636144,0.5194074222207434,0.4677981019665146,0.7174108795700531,0.49105790776129543
1.105,0.6842573834940788,0.338970910309723,0.5196076781238173,0.47227206176052,0.7278473257961651,0.5019914167502805
1.11,0.6861442188281216,0.3360405039412171,0.5193124596233784,0.4741217851578873,0.7396427152829194,0.5112886257889621
1.115,0.6885521784030142,0.3360413658092859,0.5188723519732468,0.47437975318954684,0.7513020414538305,0.520333671164809
1.12,0.6896884021740879,0.34070331649185476,0.5183628336503986,0.47525680521787483,0.7622116872258967,0.5301966440657906
1.125,0.6885008289119554,0.3477221429930251,0.5184518995013506,0.47811205054341466,0.7721769008097116,0.5398556353767167
1.13,0.6870272406173907,0.35222635900457117,0.5200056865836733,0.4817426341321056,0.7813671548398845,0.5479339970459012
1.135,0.6881509461785058,0.3511761032604842,0.5227064514220363,0.48374129587326375,0.7902594232230991,0.5546710180651676
1.14,0.6915955679563902,0.34684893916549986,0.5253045995133768,0.4839478159629429,0.7986262311602926,0.5609886888392994
1.145,0.6944179682436442,0.3437125034608523,0.5271874400009419,0.485081727731595,0.8052937816520902,0.5668572106182127
1.15,0.6951580141757866,0.34225968912906324,0.5282152962212515,0.4889543193449501,0.8096517010710182,0.5716387776147239
1.155,0.6950521695030323,0.3395879047538407,0.5273329124230111,0.4935116421198455,0.8123933237968022,0.5750817920744341
1.16,0.6951841039949683,0.3356206721596979,0.5237851979564312,0.4953844942816947,0.8141306666470225,0.5772513076145314
1.165,0.6950956723820659,0.3338269358815975,0.5200070369462192,0.4945099675962741,0.81452520482414,0.5783366299034651
1.17,0.694672031998451,0.3354062899734617,0.5202573374665677,0.4940801220222779,0.8133031504461044,0.5788459801111429
1.175,0.6949367505024394,0.3378567451297017,0.5249973332575345,0.495948554271067,0.8105941782496404,0.5789958958531052
1.18,0.6963009854361883,0.34001550697796007,0.5295066944441511,0.49824546548052556,0.8058095315155833,0.5778662025178606
1.185,0.6981338169341048,0.34350260180966424,0.5300852043529808,0.4984305085210413,0.7980839464950721,0.5743841911073776
1.19,0.7004378820379665,0.348546131473483,0.5287802305746562,0.49709242922910846,0.7884546778571728,0.5690819896133655
1.195,0.7036692902448496,0.35335318834714075,0.5292852295635897,0.4972192745922119,0.7795818658487427,0.5635205477763481
1.2,0.7066875796332437,0.35774670030099365,0.5311068142086449,0.5003987035990466,0.772628999488664,0.5581682239216856
1.205,0.7076447028605971,0.36214566495000533,0.5317906993186406,0.5051774383504162,0.7665009617509653,0.5523423621278766
1.21,0.7074214150928183,0.3635975474677236,0.5326926895837684,0.5090695932907127,0.7606179523204126,0.5458511250245416
1.215,0.7091848383538828,0.3593077454096895,0.5373594031731933,0.5109353844494583,0.7557645648462028,0.5389052965578365
1.22,0.7136307920584483,0.3534858543487088,0.5448099169998979,0.5110874067306967,0.7514041723980464,0.5309095167283753
1.225,0.7177206014737888,0.35316053143733167,0.5497341864270672,0.5101726872926104,0.7452276493914202,0.52153245246517
1.23,0.7193885779720344,0.35746085738587224,0.5501278224489845,0.5088173666107161,0.7368690035725001,0.5125927435508679
1.235,0.7203890959328403,0.3593876576072293,0.5498548609009887,0.5078615801383441,0.7292681523160324,0.5063895009058399
1.24,0.7227513184845895,0.3581933298553723,0.5519985856159794,0.5079778120901528,0.7245750244577802,0.5022932539204066
1.245,0.7254286833440253,0.36033871260834616,0.5543142767228627,0.5089579046856176,0.7212366978338065,0.49758140470461015
1.25,0.726763221134462,0.3670365950392963,0.5540877627566687,0.5099144634796403,0.7169653347728392,0.4916599240584945
1.255,0.7277016396143111,0.3713858375525343,0.5535872310471304,0.5102762983771215,0.7121426466474782,0.48675851006307896
1.26,0.7299082302469235,0.3708597440277354,0.5567277229617162,0.5101938036358472,0.7083465122950884,0.4843075779985312
1.265,0.7326258971597096,0.3724882077201131,0.5626634001037667,0.5100007092922003,0.7058571738212498,0.48343721929767586
1.27,0.7340732326993658,0.3812396776027103,0.5668434739887895,0.5098334798072784,0.7046839868872189,0.48332104331848114
1.275,0.7345377937473778,0.39212100935708594,0.5676255732434018,0.5099004359099147,0.7057936509270069,0.48404661216181466
1.28,0.735605535216038,0.39829173127921774,0.5682894191836956,0.510539714511271,0.7090054603810415,0.4847467886438124
1.285,0.7374361512801151,0.39898359898983227,0.5722744220759328,0.5116799117733309,0.7115980626635962,0.48403265233696596
1.29,0.739153750624971,0.395611953950845,0.5790201926790116,0.5126584186232536,0.7113807383651798,0.4830304885840173
1.295,0.7410986279467159,0.38865653915193266,0.5851581389468182,0.5129239187297928,0.70966532944143,0.4847774639424559
1.3,0.7444155927938959,0.38253464058833614,0.5881698389294399,0.5126509267416692,0.7091731181371418,0.4895223095983365
1.305,0.7488348431626395,0.3846089310336084,0.5883430117471316,0.512453168471529,0.7105343460700205,0.49380536511813683
1.31,0.7528264761382526,0.39423633492221616,0.5881698389294397,0.5128097546312527,0.7128518782779628,0.49559867012419906
1.315,0.755802813651182,0.4009364615393423,0.5901554210899778,0.5138916926205946,0.7161246676824088,0.49721311306512395
1.32,0.7586003903036949,0.3983810571900093,0.5946652805852266,0.5154617380095132,0.7207745796831219,0.5012374591001848
1.325,0.7618550743303338,0.39230691810776747,0.5999515770859064,0.5167699068934821,0.7258557691352179,0.5064366743133657
1.33,0.7651807170620785,0.3900916126544227,0.6044654206269457,0.5171912923866417,0.729950048670177,0.5099625474947397
1.335,0.7680040457800729,0.3912378947630655,0.6083970506218107,0.5172736806089263,0.7332589700513885,0.5114331669653098
1.34,0.7703417576568884,0.39339667135917783,0.6124897600992596,0.5183659480677746,0.7371141935579039,0.51258598646402
1.345,0.7727473152528727,0.39872035802541994,0.6164543738223869,0.520656218694118,0.7419134857155211,0.5145954146794278
1.35,0.7759382610518847,0.40763522156407944,0.6195739698581726,0.5224448138071647,0.7468336778253453,0.5176977226657812
1.355,0.7801786625724303,0.41430058179892,0.6220211256298943,0.5223184358266355,0.7510596070541452,0.5219971096799861
1.36,0.7847185129878282,0.4150453313232475,0.6244425253311067,0.5213734033893872,0.7543710698441779,0.5269109436834214
1.365,0.7883671411057752,0.41440099622904414,0.626883317962967,0.5220079332901765,0.757182812692183,0.5311136933799167
1.37,0.79089318258794,0.4169340488933351,0.6292031772249927,0.5247797122162874,0.7606026279465069,0.534431648248762
1.375,0.7931998233476933,0.4203662759365521,0.6319756641839144,0.5278084898908407,0.7654653700040044,0.5384490795190479
1.38,0.7959332612938083,0.42229360355008044,0.6358505590362958,0.5294206831282448,0.7708393098392716,0.5440672540962666
1.385,0.7988364593219146,0.42554828607961065,0.6403765439403852,0.5301330430603954,0.7748148463376711,0.550000425919326
1.39,0.8017757205296514,0.43069917177015876,0.6443687040145933,0.5315321807636555,0.777306195705735,0.5548617003384848
1.395,0.8053009720607522,0.43186264512364786,0.647180927321648,0.5341636274626305,0.7804732670339981,0.5591090352235197
1.4,0.8095656661774435,0.4273405175184251,0.6490978413603304,0.537196471348746,0.7856120064634502,0.5636999699376842
1.405,0.8136270848848718,0.4260639281244437,0.6510585843258572,0.5395357011085877,0.7913484208830456,0.5684806516489962
1.41,0.816589519861943,0.4349242873577911,0.6543967542900336,0.5406159801574849,0.7959863042699884,0.5732134130070939
1.415,0.8188157925910917,0.447033730708603,0.6598290945016199,0.5405319746754067,0.800021032908727,0.578571998144674
1.42,0.8213634824121414,0.4516282327048295,0.6660866500183553,0.5400682522624345,0.8049628598469197,0.5847415383872722
1.425,0.8246964259628838,0.44936952836853145,0.6708055919467845,0.5405088800622444,0.8109363366148193,0.5905597801458843
1.43,0.828459913230005,0.4486358146880557,0.673588695205496,0.542925620222981,0.8168392497676135,0.5953957750773748
1.435,0.8321657805625754,0.4519247929790741,0.6766518377735689,0.547422636490875,0.8219934053495048,0.6003590011871133
1.44,0.8357337548183151,0.4551744713691,0.6812996581067502,0.5529786550400322,0.8264744499774815,0.606249345829534
1.445,0.8395614420227634,0.4566158028690377,0.6856392330290025,0.5579679970261942,0.8305177667607886,0.6118193111809163
1.45,0.8440962534070942,0.4578363835155666,0.6876526558663778,0.5611940383313873,0.8345235774690007,0.6156484536372773
1.455,0.8490638221279332,0.4590702651752802,0.6886789727567403,0.5629484562591811,0.8390040226090674,0.6184888009850025
1.46,0.8533581392171722,0.46044680190121,0.6911344315663533,0.5648873575742105,0.8437871616071059,0.6221876244359807
1.465,0.856227116026326,0.4646990674641423,0.6941720959594213,0.568153055073867,0.8478767101524898,0.6272667468163372
1.47,0.8583294356724672,0.47252156327484707,0.6950502421965736,0.571659554743083,0.8506711056249548,0.6329181961368466
1.475,0.8609926403929183,0.47894981515343343,0.6943224990571167,0.573172003230169,0.8527909510240121,0.6384745203337899
1.48,0.8646718707159338,0.4799534790654895,0.6959476387409685,0.5723208381575731,0.8553992060748328,0.6436565786287657
1.485,0.8688075741082587,0.47845333057079664,0.7017019050978477,0.5714321635950965,0.8592942304760579,0.6482343648265639
1.49,0.8728892150379823,0.47881010740542274,0.7089100332731318,0.5726090972204276,0.864701101148248,0.652569176183373
1.495,0.8768465806348851,0.48064938652423356,0.7148634237929198,0.5749344182850576,0.8710743729793731,0.657711820182699
1.5,0.8806106156153739,0.4832674703616174,0.7202675599107877,0.5757727404352558,0.8770372222917553,0.6640156813065446
1.505,0.8841156425621313,0.4895476508962285,0.7265665095935602,0.5742951265277323,0.8815285193803019,0.6704282897525647
1.51,0.887642533425802,0.4990602914167318,0.7328216152747512,0.5722415669152877,0.8851744649341414,0.6759419395960854
1.515,0.8915083064951378,0.5040347858510876,0.7377158570358615,0.571266869717476,0.8894995899632707,0.6809147263125239
1.52,0.8955655371514278,0.49986422461511737,0.7423178750052155,0.5711573846231894,0.8945845409850348,0.6862647277958202
1.525,0.8994776550895802,0.4936330946298538,0.7479575585835907,0.5712143089957009,0.8986629033365441,0.6922022864662395
1.53,0.9030893666435504,0.4943796136833476,0.7529821746825763,0.571845210703863,0.9005754608959154,0.6983197219702085
1.535,0.9060590722777425,0.5006678535607372,0.7546999257858039,0.573528685011857,0.9016767848045675,0.7040584686495189
1.54,0.9078176459203583,0.505732579660771,0.7536184240844973,0.5752358579306883,0.9044448653538779,0.7087357713487775
1.545,0.908575310121677,0.5086803172021326,0.7527504842037763,0.575527490339155,0.9095503665305917,0.7121913213803454
1.55,0.9095019126071121,0.5115409423837904,0.7531574867007315,0.5748845421978346,0.9151048830811563,0.7156786780867498
1.555,0.9108256029341273,0.5112180948612799,0.7531006868929456,0.575380861226835,0.9190487808155948,0.7207841852138513
1.56,0.9105083624985886,0.5047235541709248,0.7514675212556445,0.5779414048319288,0.9217555140869313,0.7271270673976495
1.565,0.906325022230186,0.4976358586876829,0.7489126780068683,0.5812813150790999,0.9254270499360499,0.7326463006191901
1.57,0.8990895601825721,0.4966216940478749,0.7451002791061991,0.5837861261883152,0.9308490684006656,0.7366000379612757
1.575,0.8923630112178296,0.49735024849890436,0.7379777963179356,0.5850981349178319,0.9360380861600011,0.7405455204005577
1.58,0.8885416834669291,0.49079764465442444,0.727228318293373,0.5855188353230013,0.9390548154586702,0.7456456530347285
1.585,0.8861625409771319,0.47857019698997066,0.7159131369308228,0.585377391522276,0.9408857029990768,0.7508667686747867
1.59,0.8816589519861949,0.4705831910073478,0.7068351005220369,0.5856715566536802,0.9438539452293961,0.7550022882874711
1.595,0.8733094860417602,0.46933478390496397,0.6991796610451309,0.5877570127586451,0.9482171386692162,0.7587910213121045
1.6,0.8628130896892084,0.4680284699544196,0.6906534739412789,0.5913021209284177,0.9524587345253898,0.7634073610487602
1.605,0.8529882906912329,0.4637562124874329,0.6812492439711885,0.5939649738605177,0.9558938938100934,0.7679242777665066
1.61,0.8446688063480816,0.4608823970784795,0.6726105804533294,0.5944261285221035,0.958148368138016,0.7698378103200029
1.615,0.8366362580741644,0.4601353473262226,0.664843717016182,0.5943737043675855,0.9568458159899995,0.7674692268234894
1.62,0.8281821847329965,0.4554985457739547,0.6564593419035405,0.5958691090432056,0.9493199372841047,0.7604814774708659
1.625,0.8201833276418892,0.44513091054082826,0.647020449521458,0.5981248449213944,0.9363743301439734,0.7483935130867284
1.63,0.8132196938795173,0.43587946753554363,0.6376344729152745,0.5990129067302465,0.9205952232086314,0.7298938995465545
1.635,0.8063607741747201,0.4326723246750638,0.629006925833598,0.5985945597114756,0.901009359829294,0.7038260009079208
1.64,0.7989261809912418,0.4310852383574213,0.621038957846929,0.5984680341322366,0.8736935331330943,0.6701372739783575
1.645,0.7917855810807537,0.4251050528982612,0.6141913970534482,0.5982412998666594,0.8380157340299024,0.6295555572507976
1.65,0.7854451539821111,0.41621287352410874,0.6090166427536992,0.5956445995807902,0.7976646266860613,0.5826873839849969
1.655,0.7786358732934996,0.40980293146157126,0.6042350716943417,0.5901464057225635,0.7549721476477991,0.5300725624964138
1.66,0.7706801283808846,0.40678921586143924,0.5978138129800098,0.5833935894094728,0.7094345428554966,0.4736280022328087
1.665,0.7633115505428097,0.403528953664464,0.5907201364143408,0.5754728197180765,0.6627628865301133,0.41758324279790277
1.67,0.7578487663310409,0.39785946392953864,0.5870226535138021,0.5637559407525079,0.6194804669397921,0.36660250362227265
1.675,0.7527847559433682,0.3914280113802875,0.5885714514018658,0.5467459298154914,0.5808831338815978,0.32250433294209685
1.68,0.7470162734061266,0.38667043026517656,0.5915979886921482,0.5266317766951268,0.5445672641947106,0.28404272722237456
1.685,0.7428108613174776,0.3838129572272058,0.5909244390341826,0.5067114805423222,0.511651137513692,0.2503550422430344
1.69,0.7417745915520215,0.3813108756080111,0.5863750458404263,0.4884374508669014,0.4871008613523833,0.22272216406250875
1.695,0.7407128118985531,0.37865517165676926,0.5824367078088433,0.47203951773967245,0.47025997474338604,0.201762614015693
1.7,0.7364028756673068,0.37770255543548165,0.581863610248937,0.45743404703684337,0.45358531726627827,0.1851212336819585
1.705,0.7316538534393778,0.3797467488520032,0.5822724361954044,0.443032161732787,0.43504692150537666,0.17018807298684718
1.71,0.7304919306561068,0.3820091940531057,0.5799749857346989,0.4264473394000321,0.4225086245578217,0.15738958058557598
1.715,0.7300482386932183,0.3803422916429812,0.5752020910381523,0.40848572404987404,0.419503460401691,0.14816487390659008
1.72,0.7250002016031486,0.37561849260757946,0.5716969145813485,0.39380603615863463,0.4163905214455578,0.1412355481960596
1.725,0.7180019288282657,0.37278032029773833,0.5717090336995874,0.3850749128692527,0.404847397509094,0.13415182736392026
1.73,0.7161941663016943,0.372226777361707,0.5731172069946023,0.37892727854410657,0.3923803156953455,0.12756613822311536
1.735,0.7181453377081591,0.3682297761289338,0.5720835446799514,0.3707106831666374,0.3906272411956901,0.12435893458726847
1.74,0.7153690144025289,0.3593429543296103,0.5675966670362904,0.36089002203033665,0.3960357683150486,0.12476974381923975
1.745,0.7079158962035962,0.35368759951646245,0.5623660515738574,0.35306295582320435,0.3958831894170914,0.12590724707225803
1.75,0.7060576290900539,0.35752618790506624,0.5594902035373792,0.3475897916809816,0.3893362857606776,0.12627286113400316
1.755,0.7127550205432678,0.36400553210782405,0.5593869140802907,0.34178535399525767,0.3877299903863519,0.127380630329754
1.76,0.7172667451574922,0.36177887192084496,0.5602401995106937,0.33560609897970795,0.394920920099941,0.13038826153468155
1.765,0.7126848131152084,0.3518106086635135,0.5601885093157182,0.33228053925066886,0.4019095357102067,0.13437861547204144
1.77,0.7073831500246822,0.3463107067649764,0.5582771960076304,0.33280638283173386,0.4028666080663222,0.1387484672392838
1.775,0.7098836677146375,0.3513555351699839,0.5545771035898419,0.33419188424830787,0.4033761195821433,0.14422340201802678
1.78,0.7139090044030133,0.35939922965337123,0.550792560630092,0.3344278400602905,0.4089580467675462,0.15057336922610445
1.785,0.7104466929813658,0.36084177416222524,0.549550303680906,0.3353984157417425,0.4166682907122833,0.15622852074727248
1.79,0.7050384658806842,0.35546888957181416,0.5510062264739959,0.33902378833149144,0.42278013908688766,0.16116562135209725
1.795,0.708749187509959,0.3491309533169759,0.5510855697638579,0.3436500154257923,0.4292224990355015,0.16739667417486948
1.8,0.7185700691902012,0.345142814266983,0.545878246219639,0.3464410365047534,0.4375035246059998,0.17561344381890343
1.805,0.7221407364394189,0.34348198919790585,0.5374670524695774,0.3470392972447788,0.44455118979353747,0.18416067059362792
1.81,0.7183966904827194,0.34457112843631993,0.5322036322075734,0.3468734250990343,0.44930329265625496,0.1923372337716525
1.815,0.7182529553437946,0.3489038878992951,0.5330129568498674,0.3467726301157811,0.4558915099080431,0.2016710999888261
1.82,0.7256769359357372,0.3542181516698533,0.5370824752949785,0.3471184453024604,0.4657923191784374,0.21256119471239127
1.825,0.732629784747203,0.35670175664803333,0.5418348364071256,0.3486621917707944,0.47405827199205985,0.22272715836652182
1.83,0.7340612551005603,0.3551026533368535,0.5483662662689478,0.3513990923858494,0.4779751965810673,0.23085262881419855
1.835,0.7345094455950628,0.3517614319482235,0.5565290469099371,0.35406232392070064,0.4825298238585618,0.2390506370235483
1.84,0.736883699175846,0.34974309868010833,0.5616610298917768,0.3562706705480933,0.49228816198225145,0.24962719462575877
1.845,0.7367647463149372,0.350471986842736,0.5609604389659684,0.35961116490451495,0.5042057681068525,0.26171647953901456
1.85,0.7321218328145417,0.3541111357255114,0.5594436532445223,0.3649182997312235,0.5136790157694443,0.2731984558274097
1.855,0.7284662662725703,0.3604576621710712,0.5636311775682519,0.37009266279233294,0.52187797581736,0.2838424809354458
1.86,0.7296542102801483,0.36820676447264244,0.5714944068426969,0.37273386627537286,0.531675634490388,0.2944334375253244
1.865,0.7320969939538373,0.37409192963395466,0.5752326805110192,0.37375519080772945,0.5416003399232385,0.30470366413335787
1.87,0.7323194038998128,0.37470075819850124,0.5732464667629301,0.37609929083419913,0.5494978815585643,0.3143786686336028
1.875,0.7324609678230488,0.37009541924829575,0.5722641623040783,0.38052335689019734,0.5577170746756658,0.32473689279488005
1.88,0.7343676918858791,0.3646605258079518,0.5764941875907119,0.38490200196611973,0.5690402896184029,0.3369709885151697
1.885,0.7357313014784789,0.36321383504661936,0.5814799265748976,0.38758561368066086,0.5811879108171244,0.350173581442037
1.89,0.7360006773865784,0.3666703588043361,0.5816221678452922,0.38942406601465124,0.5907051234900239,0.36276616756341407
1.895,0.7388631446290483,0.3722130000069372,0.578201881581057,0.39202534566187663,0.5990934072339281,0.37476557911662683
1.9,0.7448147670274025,0.37690710819879575,0.5761333297210824,0.39545949014316856,0.6099295507874974,0.3869649848435159
1.905,0.7483089223185719,0.3800844914764119,0.5770608702385762,0.39841367566834657,0.6225711096462618,0.39906824754758957
1.91,0.7465778458537592,0.3825929651535362,0.5796364720053364,0.4000010687594444,0.6336458783429076,0.4103623346860902
1.915,0.7445221757853947,0.38440380756399617,0.5831653150126425,0.40100171318065964,0.642710531676619,0.4212318606054374
1.92,0.7463187265132334,0.38307059605392674,0.5869305770345756,0.4033938208482388,0.651914504703954,0.4323827441029457
1.925,0.7488351274896827,0.3758928493063257,0.5886171727204977,0.40839484304859786,0.6616060245945137,0.44338387477225727
1.93,0.748455719884522,0.36538406568649895,0.587262946125241,0.4147656408778518,0.6702347939300703,0.4533567416840541
1.935,0.7480116271962407,0.3603149387312641,0.5856729276031586,0.41964103090591254,0.677495378311182,0.462329352311795
1.94,0.7508749576633396,0.36640238107154094,0.58678813313864,0.42149648999550504,0.6844251643385532,0.4707832686691562
1.945,0.7536539400892404,0.37690808870244824,0.5901831540105972,0.42171251436993046,0.6914379312051929,0.47876058454952447
1.95,0.7515200877376904,0.3794082337051648,0.5950878641430205,0.4227215910126363,0.6985312506896436,0.48640565346535936
1.955,0.7468046537027339,0.37253305130773884,0.6032446669686212,0.42531586585719783,0.7059331377381954,0.4942930640066824
1.96,0.7456090834314468,0.3672777749988118,0.6144982190324,0.42845737555341673,0.7127210141922781,0.5021586306727408
1.965,0.7485719222895544,0.3692064194091726,0.6231464412042291,0.43106955086253934,0.7168970870500814,0.5084464640331842
1.97,0.7512378433301625,0.3704041818824038,0.624364832892298,0.4331097269902568,0.7186444916843855,0.5122717819255471
1.975,0.751824015247058,0.3653881123796874,0.6216832779338212,0.4351757372790514,0.7210225412192955,0.5148042241448604
1.98,0.7527297066270995,0.3629901312732479,0.6219432866609427,0.4377218719959291,0.7254638381550489,0.5175946770912893
1.985,0.7549939568324822,0.3711157311079256,0.6250073788266635,0.4404663818319038,0.7292662547909718,0.520477079122166
1.99,0.7564833200670563,0.3799925302519243,0.6256038154855145,0.4422835716656023,0.7297086897782501,0.5221168574654206
1.995,0.7561138095511627,0.3758685919228021,0.6239339189826738,0.44222618746746284,0.7278682606547824,0.5216899074560476
2.0,0.7559513249358922,0.3641960310712465,0.6257560349429013,0.44102243826561294,0.7259542181258543,0.5191437392515753
2.005,0.7578884560822393,0.36141326487108255,0.6311348903882225,0.44085258219869927,0.7236317080024458,0.5148100706578131
2.01,0.7605438446526779,0.3675725505048871,0.6321137808325421,0.443047458182168,0.7197095356837534,0.5095925969897109
2.015,0.76080696832975,0.3669247668583545,0.6249194294651655,0.4465407990150239,0.7149687145332868,0.50452035016865
2.02,0.7578826830959793,0.35596018208221875,0.6166348774716593,0.4491082120055634,0.7104537654588361,0.4994017392381122
2.025,0.7550992447322902,0.35020914479049253,0.6149268359050701,0.44963345289075834,0.7051091286747494,0.49300554018591575
2.03,0.7568666032288763,0.35804147580706847,0.6177744286393693,0.4487585908649727,0.6979029513518666,0.4850947786165246
2.035,0.7632685307467302,0.367100985510649,0.6191704061617803,0.44789564958535383,0.6903775457585437,0.47689430370865704
2.04,0.7691321387674792,0.36588429078827683,0.6193413114948857,0.448030736731265,0.6843791912162902,0.46902642608827333
2.045,0.7702312184685262,0.3617067093570094,0.6222725094532043,0.44901593725075356,0.6789685893960876,0.4607844413149433
2.05,0.7687128042191513,0.36498209908772594,0.6270190374869392,0.4497891170146771,0.6722116381879294,0.4523296644829162
2.055,0.7694885160669861,0.3697617218048191,0.6290504647376247,0.4497141044557222,0.6645381313092744,0.44561685631461406
2.06,0.7729706627098711,0.36480344726572267,0.628329521329771,0.44946482556896655,0.6578143887291727,0.4416838741514342
2.065,0.7755264213056465,0.3544225206422104,0.6291258451882155,0.4497474361517917,0.6523850442822674,0.43870606214059393
2.07,0.7759947099333911,0.3529677640654451,0.6326028382085142,0.44970984577239376,0.6474397874692545,0.4344402770486853
2.075,0.7767396177983341,0.36353846337848184,0.6358128883600438,0.44824533769574637,0.6432718091194629,0.4292676739120787
2.08,0.7784821765423744,0.37562309201589056,0.6376868749867286,0.44651366638611356,0.6409235146348791,0.4251004442799849
2.085,0.7793997580091168,0.38146368799217995,0.6400155126046251,0.4468520052818304,0.640251453001063,0.42243302278786987
2.09,0.7798453300646737,0.3832045849203245,0.6424219707698404,0.4489928013535424,0.6400994122796104,0.42033992606529746
2.095,0.782614706974256,0.3844398191670329,0.642448501783309,0.4500776882756899,0.639792996700803,0.4186058180834156
2.1,0.787522377949454,0.38470526022439744,0.6414391078878835,0.4492162021272563,0.6391684565535554,0.4180053525587891
2.105,0.7910025755740825,0.38416015865196707,0.6442602319472605,0.44901224644759363,0.637975769111927,0.4187780950219542
2.11,0.7923608535070883,0.3870277339087633,0.6514101806049492,0.45101782127009465,0.636582468425665,0.4202858693705132
2.115,0.7949500118600104,0.397555191550947,0.6571236956422074,0.45281277471844156,0.6365850966883104,0.42204890611092044
2.12,0.7995097011434925,0.41470090111976143,0.6579056222605137,0.4520735700877998,0.639490268409397,0.42410531271221164
2.125,0.8021516321800631,0.43139366322876355,0.6576580074916701,0.4506607485185118,0.6449944376766724,0.426603219737266
2.13,0.8013913305270176,0.4393072120550624,0.6609032749154049,0.45138895481352054,0.6510869885030358,0.4297930905678255
2.135,0.8014180761084513,0.4369572758575439,0.6656449353672989,0.4531758546706568,0.6556142830501672,0.43393265359054434
2.14,0.8051062045384888,0.43294125213468587,0.6673496525626166,0.4534139747300744,0.6578756862255232,0.4385063540603765
2.145,0.8091317036621166,0.43706131812000015,0.6663683783629966,0.45336952644824685,0.6592801596187909,0.4422618043138437
2.15,0.8099850007257721,0.44843929768372537,0.6664712485373818,0.45650915641747514,0.6620477470717632,0.44487152987272366
2.155,0.8100997522163383,0.45769571975084483,0.6684461034696608,0.46215143887661425,0.6666203714422674,0.44781153772937016
2.16,0.8135009596309868,0.46008739647104635,0.6701937823515418,0.4656216033394577,0.6712334575961282,0.4525755287816949
2.165,0.8191328848820651,0.4588766856123597,0.6718220305828791,0.4650390833858875,0.6747553214361665,0.4586332131986447
2.17,0.823077109172137,0.4558176179282287,0.6756256429176002,0.4634309771642695,0.6781881440834048,0.4642457871421446
2.175,0.8245964984308265,0.4483205016918951,0.6811953491937064,0.463309511243204,0.6820482659990188,0.4688450495554492
2.18,0.8258834249955647,0.43848839120438815,0.6851313989078687,0.4637336491802681,0.6848542468131906,0.4734219110839047
2.185,0.8280847155592135,0.43460769670315785,0.6863851520335149,0.464261157841622,0.6866925427299115,0.47867700298286503
2.19,0.8311089785978109,0.43889035780400126,0.687999269346637,0.4671567255516644,0.6912904839314786,0.4839122884178827
2.195,0.8352702360009516,0.4427489545265703,0.6921790261279394,0.47293410541684455,0.7004894164361641,0.4881524653207135
2.2,0.8400150941462974,0.4394841123884628,0.6969173744405908,0.47759170362699727,0.7092046772441809,0.491743752076488
2.205,0.8430819616927288,0.43334008659683654,0.6995012323805738,0.47775625421119317,0.7113017989226971,0.49619582846116933
2.21,0.8436688547328356,0.43073490213439153,0.7009189307100196,0.4757540521012996,0.7090590956902567,0.5023388642566505
2.215,0.844316059122154,0.43087838998898825,0.7042911482525845,0.47606834593135466,0.710699135874757,0.5090926998065091
2.22,0.8472331983936259,0.43084209322792993,0.7101065619992157,0.4789825536052715,0.7188207219864854,0.5147178473650879
2.225,0.8511320187674101,0.4318661893954256,0.7153319579435313,0.4813256424258575,0.7277070670861499,0.5191904416898869
2.23,0.8540070641743152,0.43459378148748357,0.7172287567971194,0.4818293259047206,0.7329057183572896,0.524237646110242
2.235,0.8564013886080284,0.4357444321751389,0.7165905150039824,0.4820401571134145,0.7368231382673341,0.5305951641298874
2.24,0.859450349176653,0.43539771468586946,0.7167776844599156,0.4829425124812363,0.7425811640150087,0.5366496620070812
2.245,0.8623887017610753,0.4396387262424963,0.7201918358822514,0.4842015861795794,0.7485509366457009,0.5409846264409363
2.25,0.8646033256455338,0.44986851225849334,0.7261125077750605,0.4861854269383492,0.7525420071741948,0.544927093397896
2.255,0.8675572643189604,0.4577777566325294,0.7319001703048267,0.4894618757977966,0.7563104744264717,0.5506846791576444
2.26,0.8720791261523393,0.4577756068662378,0.7359686943694401,0.49263882670800696,0.761744293816131,0.5578871859753419
2.265,0.8763024622224954,0.4562765423337485,0.7390806434685516,0.49386019560504474,0.7665825032319107,0.5642608188676294
2.27,0.8788607002886963,0.46118610517592756,0.742631251576274,0.49423145803027657,0.7683376057687724,0.5692559845998015
2.275,0.8815372220763054,0.4698865793964325,0.7464399857730616,0.4965277978039455,0.7695148373955366,0.5744864486195842
2.28,0.8861184136251464,0.47547825092696805,0.7490412268942758,0.5004650602645064,0.7744865108728716,0.5805741050727807
2.285,0.8911656399690829,0.4776377094620788,0.7498659450319325,0.5026690632870208,0.7829286688365373,0.5861950819043094
2.29,0.8946018741028666,0.4792478043692686,0.7502899850489442,0.5019243717702074,0.7902361363451859,0.5907925096610666
2.295,0.8971022006378064,0.47915873770757306,0.7523909798694096,0.5010988040856205,0.7935207505608848,0.595717249711126
2.3,0.9003274035127325,0.47642510558312473,0.7570513219769955,0.5026774485719145,0.7941591761125462,0.6016967585646257
2.305,0.9041570210023883,0.4752876847412357,0.7632146938783387,0.5054056204172597,0.79505915978985,0.6074166280925737
2.31,0.908125413286453,0.47815802825534076,0.768731721445737,0.5069669432106985,0.7978976026901926,0.6118627790043634
2.315,0.9130867825172945,0.4801361255404669,0.7721958599218361,0.5074218481125183,0.80272724695051,0.6160972315671434
2.32,0.9189155300202113,0.477977624945154,0.7742677615668704,0.5081687837192931,0.808475972607388,0.6212467000921752
2.325,0.9230854792236816,0.4773862055938325,0.7769177368888305,0.5096146021645741,0.8138758065625473,0.6263918673881455
2.33,0.9241891521378007,0.4834639873655274,0.781233547380893,0.5116783378095483,0.8186513570039842,0.6301018624085344
2.335,0.9245239920594617,0.49137293221113215,0.7865830949244736,0.5147061084892843,0.8232967943639001,0.6328762190975415
2.34,0.9267293518055583,0.49505849060628865,0.7920877722527601,0.5180632760517756,0.8276467645954639,0.6364737953076499
2.345,0.9303202788829084,0.49762139130620153,0.797797950382945,0.5196296204720481,0.8310327810164627,0.6415502435151428
2.35,0.9339386803864348,0.5036516432393241,0.8036827053837169,0.5187046524666278,0.8339450823471448,0.6472344561156277
2.355,0.9382863776549997,0.508994907329574,0.8085814897564526,0.5178059055216416,0.8377414186819413,0.652528629310886
2.36,0.9440914149315361,0.50878788311888,0.8114648902329387,0.5194253001237644,0.842450109967636,0.6571673737845257
2.365,0.9497243117360408,0.5085349871649089,0.813141696025504,0.5224450672636275,0.846771017632592,0.6614939013059928
2.37,0.953607083528217,0.5153980005288099,0.81545331931981,0.5241599552311498,0.8504494332434148,0.6661002425996765
2.375,0.956675168125364,0.5243741857200828,0.8191006157396752,0.5246090260861903,0.8544792755660614,0.6711988988898662
2.38,0.9600503201457993,0.5255186262387775,0.8233162223765801,0.526091290952275,0.8586939465044154,0.676168302005534
2.385,0.9628780393668368,0.5204378541535974,0.8272745743160566,0.5290439685638714,0.8615960999813528,0.6803870938805194
2.39,0.9647897334505954,0.5192661627704083,0.8306961195955254,0.5313949723037855,0.863175794883427,0.6844461348073715
2.395,0.9674747706994049,0.5245587007433035,0.8333813432925194,0.5321262995964989,0.8656077956069643,0.6894417986452274
2.4,0.9712473589987574,0.5302528995191407,0.8352435245982021,0.5327356623510718,0.8704439103389316,0.6951050379015264
2.405,0.9733749050945649,0.5342010560137175,0.8365211235185946,0.534457815911409,0.8770550836165514,0.7000551830151786
2.41,0.9727190619808721,0.5396767831238412,0.8370240732976224,0.5363641233047539,0.8841515629635606,0.7040514208903741
2.415,0.9724447243995623,0.5453302543469135,0.835750508848833,0.537327298078223,0.8907556224561313,0.7083532560475815
2.42,0.9746141315742783,0.5448040904120239,0.8323993948088304,0.5380396291075963,0.8956295191579747,0.7134539072415021
2.425,0.9756997115145332,0.5368577440144112,0.8285000043116152,0.5397016386697729,0.8981827419074507,0.7182040118936484
2.43,0.9717191103656275,0.5269389082230128,0.8254243920368755,0.541902300549847,0.9000735876443159,0.7218918194449768
2.435,0.9646613124769424,0.5186155192995296,0.8218556027734807,0.5431571477160826,0.903429648248317,0.7255085890210669
2.44,0.9591068174120619,0.5110746264390134,0.8152064165667056,0.5429739963726367,0.9075341681348718,0.7299860233939841
2.445,0.9550860100924375,0.5043023290222713,0.8054097935468848,0.5424141031638552,0.910010925535384,0.7346840767768327
2.45,0.9492524555263466,0.4994622580159249,0.7952785155223907,0.5429112072698373,0.9110496705874945,0.7387254120589859
2.455,0.9411046246931549,0.4951388201610997,0.7868817588903776,0.5450801076543437,0.9131080142122587,0.7424865982511281
2.46,0.9329629211489773,0.489457755990028,0.7794672430710659,0.548323271174932,0.9163672283968355,0.7465264688268157
2.465,0.925115939214635,0.48391574863737896,0.7714018503907102,0.5512245486424447,0.9182559628254332,0.7500931294853748
2.47,0.9158347176749514,0.4795783102395762,0.762359731166502,0.5527192218834631,0.9180529095470276,0.7518983528721845
2.475,0.905376344840185,0.4733720871684218,0.7529238285021126,0.5531648617047387,0.9179663406948978,0.7515300442286476
2.48,0.8956098898440398,0.46432144465005176,0.7435571369000799,0.5538938775645963,0.9183210860934717,0.7489691557228915
2.485,0.8864118636829199,0.45817608313790004,0.7346658029819233,0.555596092937497,0.9153755721015001,0.7433411484780096
2.49,0.8765228153096976,0.4583239978999882,0.7265091162696092,0.5576412453817048,0.9057704237127365,0.7331035157999997
2.495,0.8671895115346402,0.45802291312044474,0.7187722927307265,0.55908292235091,0.8900674022303495,0.7169728934869023
2.5,0.8608333467735444,0.4505473891822752,0.7114407864912216,0.5596729723160571,0.8700471835353846,0.6939826590150459
2.505,0.8566118574603135,0.44075208924904585,0.7057720986131101,0.559581578713401,0.8453026890506964,0.6632665171174328
2.51,0.8511402674064161,0.4360051308803452,0.7024003472279747,0.5586069132422667,0.8144563095965217,0.6245863902675849
2.515,0.8431943951302022,0.43209338244403855,0.6987761226530774,0.5560068717767882,0.7774328584694242,0.5787738350789858
2.52,0.8342701159621319,0.4212395578008058,0.6914179228495417,0.5509031897874797,0.7348615105664664,0.5273485319586734
2.525,0.8253247305781096,0.4089756665914372,0.6811982215887932,0.542793169567994,0.6874809617707184,0.47231763542055133
2.53,0.8166016160508365,0.40755482824424133,0.6731756079072824,0.5318997110687947,0.6378084183530445,0.41661846048285467
2.535,0.8097437048085517,0.41473719883376176,0.6699707978095606,0.5189259753561198,0.5903483524416065,0.36385324508923417
2.54,0.8060940599648407,0.41533511508751686,0.6685794181976776,0.504223237796472,0.5484175131851087,0.3168382482468385
2.545,0.8034915130163981,0.40487520310652186,0.6654828636467273,0.4875050069668013,0.5121996552108938,0.27661640222013273
2.55,0.7985944228505072,0.39604071832331744,0.6613622608024086,0.4687493568739367,0.48089448984541094,0.2428819326782317
2.555,0.7917928990066726,0.3976294108847028,0.6580847892233356,0.44890700529368344,0.4548751254735265,0.21470163689861593
2.56,0.786054707030305,0.40132881225117745,0.6545819313547497,0.42910146331588817,0.4345381064931583,0.19082779423197618
2.565,0.7818323350449448,0.3961080619352014,0.649584115948567,0.40956522065364753,0.4187898005793613,0.17026681161702645
2.57,0.7774341564117877,0.38442834990022945,0.6454940107927091,0.390054632714646,0.4060042736613695,0.1529130105477686
2.575,0.7736212956368325,0.37611636836017437,0.6447752184403825,0.3708118642390188,0.3953146444027584,0.13909003120418678
2.58,0.772748899246811,0.37419904433170426,0.6445981969580947,0.3522926954807004,0.3862358310836923,0.12848614158652621
2.585,0.7733276815726273,0.3747883755512764,0.6404553102383399,0.3345067549918718,0.3782924834938033,0.12018428099985601
2.59,0.7707530280792873,0.37562081508095824,0.6338515963631813,0.31764395612558344,0.37161637820057236,0.11351581567127654
2.595,0.764473300686182,0.3770844167486561,0.6304798344678405,0.302804137365829,0.3667896600828218,0.10807254362790032
2.6,0.7594793800299993,0.37721081629582337,0.6310122147036007,0.29090792804582627,0.36375497429176423,0.10327882909413899
2.605,0.7589078250018495,0.3719009542372943,0.6301227489889809,0.2813432848492101,0.36180143147776916,0.09909185338714219
2.61,0.759588245730046,0.3606676575888823,0.6256848129949332,0.2729277690002741,0.3605675044807954,0.0967852686316797
2.615,0.7572897841918333,0.34920084248713645,0.6223088709739071,0.26567523917395053,0.36026286300503024,0.09765311225354935
2.62,0.7527176104382058,0.34476764544064986,0.6231778004260174,0.2602158297334013,0.3613438888592818,0.10103092693425764
2.625,0.7495864821208322,0.34879855269621735,0.6246331591193349,0.2561134177095081,0.36435338321321625,0.1049085762523748
2.63,0.7493951905552966,0.3548078778307787,0.6227599649977901,0.2524865982056007,0.36861280087883785,0.10838380820897205
2.635,0.7506030176349026,0.35575805434699226,0.6197491574226227,0.2497132513283824,0.37071070161230646,0.11215981148554073
2.64,0.7511289776301143,0.35293203370079235,0.6188190172097133,0.24853384580620846,0.36731022908101973,0.11679131352159028
2.645,0.7497958491881543,0.35318419490717484,0.617797211543516,0.24806975051191776,0.36096573006716476,0.12198310127503664
2.65,0.7468772858239326,0.35717238723826567,0.6137276254854408,0.24715020230450485,0.35930707471176415,0.127624613013205
2.655,0.7445097396011036,0.357282253734418,0.609752850899632,0.2470488178541753,0.36556969745561485,0.1340163654976144
2.66,0.7449034724126266,0.35009146973274236,0.6105287824649132,0.2497625500616258,0.3740567847747203,0.14101209133392814
2.665,0.7472046563588719,0.3431396618836859,0.6139215519035335,0.2536321467728224,0.37902274546126197,0.14830117663021514
2.67,0.7480484815250876,0.3439637122418438,0.6149160544604039,0.2544863954541534,0.3833548487544771,0.15639291027529473
2.675,0.7461142683208619,0.34961470804244466,0.6154536093347638,0.25211778898128634,0.3923176087225248,0.16584126016166248
2.68,0.7440164185603922,0.35365557357933936,0.6213735110772003,0.2516971322647707,0.403013289637131,0.17579454712684311
2.685,0.7446469867643993,0.35644207147085394,0.6302258160812529,0.2566776811626766,0.408641139875544,0.1850351441440644
2.69,0.7477904294953471,0.3604086124470401,0.6323321948062359,0.263768337278071,0.4109387221188814,0.19410759052623167
2.695,0.7515463489050189,0.36195355908379684,0.6260889633265322,0.2677403786414029,0.4186051330157961,0.2043929760536442
2.7,0.7549755656984338,0.35786282398506525,0.6221664487646504,0.26829400456488717,0.433197375486447,0.2153687642984199
2.705,0.7578740521753176,0.35449437760724234,0.6278100368260643,0.2688903122984582,0.44635185330980043,0.22517225697705046
2.71,0.7597495282486341,0.35991731993663556,0.6361164543087835,0.27120542109971874,0.45321100804952735,0.2338493968320521
2.715,0.7605912187199776,0.37039193910317136,0.637805961282541,0.27450743715562104,0.45939469590549936,0.24342700913469884
2.72,0.7613784816863708,0.3748436796558519,0.6357413520495606,0.2788082538825066,0.47065014576569336,0.25448216152721526
2.725,0.7627749296130396,0.37037356303784913,0.6385218718864063,0.2845363717795555,0.4837341523225963,0.2654214983211911
2.73,0.7646041320581264,0.3641245703423612,0.6452376117800249,0.28984857598983493,0.4930543806868181,0.2758075276245005
2.735,0.7671406551181731,0.3620214201734171,0.6474331837703404,0.29216292436220237,0.4999306062769351,0.2874944932428117
2.74,0.7709921847551342,0.36412457034236095,0.6438271379083902,0.2923037726118206,0.5091290422027847,0.3013081712781615
2.745,0.7750010342217358,0.36854725904840163,0.6421793352655233,0.2937352273685581,0.5207860794959862,0.31538654065166005
2.75,0.7766519361966356,0.37200311568780214,0.6461255120648404,0.2975883318274796,0.5316603101163007,0.3283911774878866
2.755,0.7758154386261188,0.36975509687624236,0.6501343362206022,0.3017216081269832,0.5412305648453484,0.3417453517577623
2.76,0.7756479525184266,0.3627132209494993,0.6498812827882002,0.3050218124108405,0.5514134283198905,0.35665269323629606
2.765,0.7780452621483069,0.36004842252736236,0.6486637966939391,0.30923541812070926,0.5625982594274538,0.3712211561180258
2.77,0.7806315823427898,0.36660783066682434,0.6495774024767218,0.3154712034393184,0.574189279313143,0.38314047368666093
2.775,0.7806107121711005,0.3736846752665485,0.6491970058154769,0.3217710637026028,0.5867741544308116,0.3936329563014021
2.78,0.7793614825089109,0.3719227223679632,0.6445918661183012,0.32569359045579754,0.5999648765346526,0.40594902034736396
2.785,0.7800064708231786,0.36656616559377525,0.6405010512110793,0.32734633679431596,0.610555192060418,0.4205551900225229
2.79,0.7819178104285285,0.3680459778329654,0.6429395169252223,0.32860140375234237,0.6168101947543286,0.43419871119376907
2.795,0.7815240195680704,0.3740703120550986,0.6495634414629766,0.33078967095984146,0.6224866326059793,0.4437908662732833
2.8,0.7784023258836619,0.3751366160989349,0.6528964849035181,0.3340062611808659,0.6325176781980392,0.4495710837765956
2.805,0.7766846670540468,0.3722664510672083,0.6509551096627029,0.33740204923268546,0.646144338952109,0.45424360023882754
2.81,0.7791437511088171,0.37341446508066395,0.6486847540621172,0.33976783919966913,0.6580863963692745,0.4600935572731217
2.815,0.7829658658797165,0.37622600810480933,0.64976866032781,0.34111363574548226,0.6655147551241449,0.467226027671446
2.82,0.783619340999629,0.3715386209506769,0.6523882953571162,0.3434359357744954,0.6703765443903367,0.4741719477241943
2.825,0.7809963090619214,0.36212029908832527,0.6533434685458559,0.3480464685324409,0.6753736830170365,0.48005026050053334
2.83,0.7791276228569587,0.3602120954431305,0.6520654225262543,0.3526042150520906,0.6808944133752327,0.48574011386162175
2.835,0.7805957534802298,0.36632509329593366,0.64970363888023,0.35359465065086054,0.6861537894618909,0.4922226915795387
2.84,0.7837725593922883,0.36814423633470994,0.6473552776999005,0.3518170680269906,0.6908843880180644,0.4983352902982837
2.845,0.785783120525878,0.3622717185773299,0.6460374654609967,0.35205028519595877,0.6950038032114592,0.501826006258938
2.85,0.7859619695821177,0.35943496001760405,0.6462632078309858,0.356342735313807,0.6976730857405511,0.5026125262740346
2.855,0.7853443015854342,0.3644122711974698,0.6472158020163953,0.3611000058298588,0.6974140903255902,0.5029577721358272
2.86,0.7844539780333213,0.3677958652820761,0.6478300906865021,0.36268443469660605,0.6934971938006529,0.5038794800583971
2.865,0.7833157697540043,0.36324831069503166,0.6483414539176003,0.3627188863605306,0.6875670358138123,0.5035416693659766
2.87,0.7827941121128559,0.35750849787151595,0.649313881269352,0.36504815901201365,0.6830766194184715,0.5002847098543753
2.875,0.7840130758115165,0.3570227306472745,0.6501838625617674,0.3697486837882919,0.6817419517730904,0.4951761205390435
2.88,0.7865385545860694,0.35880967864122126,0.6507359461640378,0.37335722649879594,0.6811917214053215,0.48995988114821304
2.885,0.788787415480983,0.36084682165794846,0.6527579059982825,0.3738300507138431,0.6778068191167101,0.4842416834246213
2.89,0.7903851426543886,0.367670809007052,0.6576112382088379,0.3724108234765924,0.6710554824395093,0.4766846808572725
2.895,0.7924252335255648,0.37869543086592333,0.6631008465146265,0.37123863120894385,0.6629386953818202,0.4676975664115555
2.9,0.7949937906230352,0.38400851811828984,0.6656830589799458,0.371616862406812,0.6543893911197536,0.4588012644131396
2.905,0.7964016768496956,0.3792077190396729,0.6652329678018849,0.3742952164633428,0.6452898477199959,0.45015928052147175
2.91,0.7959614857345618,0.37257480151762523,0.6646384704093772,0.37913682070902904,0.6370766794901297,0.4408713344577408
2.915,0.7956979801433435,0.37084353941905573,0.6650314249878656,0.3843438012499207,0.6314987334947322,0.4312804412346482
2.92,0.7975541506056157,0.3700468782379764,0.6646906998379615,0.38765127277809547,0.6271005119566737,0.42286707654693334
2.925,0.8002624702374456,0.3673485249117035,0.6627856264738213,0.38839088278066125,0.6208896329564301,0.4158376905275699
2.93,0.8011426866441959,0.3690464280352609,0.6608257221276427,0.3873377910472409,0.6134503257349196,0.40882416080179323
2.935,0.800219802602693,0.3783384318063112,0.6596985086845109,0.38513117820206944,0.6082280336674344,0.4014939321748687
2.94,0.8002255109098152,0.38702431850636476,0.6585383803905033,0.38229325744728676,0.6055965840130643,0.3957323050308511
2.945,0.8026505657542827,0.38832466343119787,0.6577500359248605,0.3801674728641928,0.602287964636111,0.39320426842294937
2.95,0.8059771301388641,0.38696520577125154,0.6599663106220146,0.37994754932330915,0.597436354809455,0.3929145998145898
2.955,0.8081680532167362,0.38795202027561093,0.6659164835508722,0.3808249110507382,0.5943002572080153,0.39250052749265013
2.96,0.8090737544957507,0.38685801467813313,0.6718271390254597,0.38066751914353986,0.5944952129325604,0.39139164610121746
2.965,0.8098421024842503,0.38083564985800455,0.6736269142336752,0.37862059567347195,0.5952321363770409,0.391243791936867
2.97,0.8114607357708512,0.3778003673079729,0.67246338842738,0.37580742853306004,0.5943791421783227,0.39310717678979845
2.975,0.814361049248459,0.3836519743804982,0.6735256314477301,0.37362042326519224,0.5939322819151029,0.3955838038670589
2.98,0.8180571907810913,0.39077048957736393,0.6796805458226493,0.3726509917948022,0.5959422283356314,0.39676951786222026
2.985,0.8208158127296767,0.3907481444420096,0.6881729537989918,0.3731001124197264,0.598830615752245,0.39710895932740414
2.99,0.8212546167120953,0.38862666771458165,0.6939106910288639,0.37466159875821414,0.6005165540018096,0.3988135366342644
2.995,0.8207073851007667,0.3920121529783974,0.6948792807164131,0.3758925430206271,0.6019851777519479,0.4026649206519691
3.0,0.8221819911939737,0.395504762857727,0.6938157284314989,0.37526694279020806,0.6050372443587722,0.40702339715651864
3.005,0.8262085914359308,0.3902562166986842,0.6949207638449855,0.3733319960445786,0.6091404714101417,0.41032677972494364
3.01,0.8297378352660354,0.38153687016282234,0.6993656749871837,0.372622165888517,0.6129063104547147,0.4130067975617523
3.015,0.8305125021942283,0.38160018004121204,0.7044158130195016,0.374935127167585,0.6164114464308167,0.41627462353399775
3.02,0.8305648849750312,0.39006915109029905,0.7069613177994987,0.3795605615314253,0.6200919094659826,0.42050175829532666
3.025,0.8332357451473831,0.39620154533556295,0.7069841675369223,0.3843864227448041,0.6234274282413954,0.4256179508136182
3.03,0.8381368643452738,0.39722875293898985,0.7068256042622331,0.3877161660501341,0.62622133178578,0.43153735381473024
3.035,0.8417927014714738,0.39985327727617337,0.7080663059198624,0.38882706987705445,0.6292226641872442,0.4372358826382597
3.04,0.8427938970694966,0.40531274787929406,0.7106003675052005,0.38809093991371424,0.6327216456171555,0.4412938888838549
3.045,0.8434940675507248,0.40729386588907324,0.7140702142264288,0.3872394345585561,0.6368028051882071,0.4447242849081041
3.05,0.8461485734561234,0.4049911745999397,0.7181973752897061,0.38845111961275225,0.6429833062398014,0.4510636229053523
3.055,0.8499118568543625,0.40520667617141803,0.7217716357584729,0.39223689887238644,0.6522972361944573,0.4614791886235164
3.06,0.8529143751108824,0.40989516711093293,0.7234013256220443,0.3967830316302646,0.6617325246967154,0.4718557534938801
3.065,0.8553714277714455,0.4132760699288407,0.7237393076929413,0.40004166552207426,0.6667798540097897,0.47768426510322853
3.07,0.8588253794171247,0.41353966427736877,0.7251391411526842,0.4018943886700886,0.6681184831331308,0.4802212622122887
3.075,0.8633882924035624,0.41658639384489177,0.7284610659187102,0.40358523881801756,0.6712294155862072,0.48430895058737333
3.08,0.8675991484283017,0.42483045942110265,0.7319859444182968,0.4056523020652031,0.6783988921587604,0.491218070790212
3.085,0.8706432694890145,0.4318160373540063,0.7343733081155058,0.4074419354801235,0.6860007452578767,0.4977422125788901
3.09,0.8730732668533124,0.4321604385840163,0.7369184134431921,0.40847438683105225,0.6911065914424261,0.5021260160208986
3.095,0.8752857541453762,0.4292045917859099,0.7414415046896194,0.4092633221875739,0.6954424568700203,0.5064934263455441
3.1,0.8767841878618777,0.4286804061828214,0.7472274412858788,0.4104922002710319,0.7005770546308064,0.5124744945310679
3.105,0.8774831960456911,0.43106321146300763,0.751775731214258,0.41205202873292573,0.7046282232776643,0.5184280790804184
3.11,0.8785784558811679,0.43401316306628746,0.7540362595127243,0.4133586483920572,0.706890083781393,0.5228099994344416
3.115,0.8811768195895947,0.43709491809491324,0.7554489685473444,0.41429885688687157,0.7106756718479851,0.5270942069684154
3.12,0.8846091318162027,0.4404139005409812,0.7579152916873474,0.415425865000659,0.7177727705581105,0.5332069262572601
3.125,0.8870575846679064,0.44270132491573516,0.7618481695883424,0.41729308177742613,0.7245928192731055,0.5405035033430148
3.13,0.8878376536492705,0.44378279049113606,0.7662938826118155,0.41986061981380557,0.7280076842541517,0.547388362282824
3.135,0.8883393710021658,0.445665523313093,0.7701630451551398,0.4224978579891309,0.7309346852164342,0.5539610617448812
3.14,0.8903964324306894,0.44911817460708714,0.7730952527918311,0.4243817919716725,0.7374286087480219,0.5609882372518287
3.145,0.8941234937178872,0.4523452141044139,0.7755203755886215,0.42506451247500426,0.745555772895514,0.5677793964894882
3.15,0.897855748915376,0.45447772926383256,0.7780807891502524,0.4249736149411874,0.7502280266864064,0.5730889421151961
3.155,0.9001732707497466,0.4569219050046674,0.7809410120882982,0.4252137820778174,0.7510206054278492,0.5771835869770202
3.16,0.9014362208280252,0.4598651536049062,0.7837156797491187,0.42646895882974617,0.7524883718649787,0.5814677298086506
3.165,0.9030171127277983,0.4611028905520341,0.7860957768327984,0.42827834745119053,0.7578030333072081,0.5867364706598285
3.17,0.9055481421271663,0.46018608859400123,0.7884029007888982,0.4299746934874165,0.765736369888624,0.5928074729596242
3.175,0.908667310018389,0.4604430536603256,0.7914665090008041,0.4320353671935577,0.7731302891550028,0.5991078009272824
3.18,0.9121750963663049,0.46458361619876987,0.7959396926060444,0.4353396464377864,0.7776697812160085,0.6048861035576073
3.185,0.916254104269094,0.47065730372937986,0.8015347951745649,0.4390214578802257,0.7792693284166629,0.6096620949052862
3.19,0.9203528418770385,0.47451922342623637,0.8068920222200368,0.44075579863247316,0.7806469092575811,0.6139422892077949
3.195,0.9232330911460571,0.4748119215305134,0.8106371734053461,0.44014511941370554,0.7848946326097578,0.6186424220589465
3.2,0.924937946550973,0.473984453718441,0.81280106145844,0.44018559509267274,0.7910958564907775,0.6237365193416278
3.205,0.9274685676335735,0.4754361469257911,0.8146929630516312,0.44353297426756,0.7950803678816114,0.628618705443796
3.21,0.9322465974922776,0.48048960967985593,0.8170991514722183,0.44846312532554716,0.7961628380252852,0.6335513552452045
3.215,0.9379406876434523,0.4872133277202836,0.8193901408424824,0.4510362162341102,0.7993203818056783,0.6390965117611639
3.22,0.9423840378691356,0.491920024725289,0.8210207389932291,0.45087008850038407,0.8077633892122196,0.644389722551975
3.225,0.9456856884514788,0.4928245034331885,0.8230018390172208,0.45180213436660016,0.8171461099632431,0.6481360315448548
3.23,0.94934661605558,0.4920235114204854,0.82668097064057,0.4560659581083351,0.8213024737217014,0.6512278944437634
3.235,0.9530594888410947,0.4926478086423825,0.8315190680491954,0.4606271760816145,0.820840813846998,0.6558413474498842
3.24,0.9553287744141415,0.4948083780558201,0.8354097091435349,0.4612546212397174,0.8214557174627607,0.6617689499289813
3.245,0.9574178662931462,0.4964021575760134,0.8372106351888765,0.4583848568321596,0.8257017130933696,0.6665095348618786
3.25,0.9633122590842379,0.4973452339268424,0.8378597441540768,0.4565127596557584,0.831140721888368,0.6695058143718745
3.255,0.9742004195238327,0.5000760054570431,0.8388428083354639,0.45849905166711896,0.8355756263978481,0.6731517164542442
3.26,0.9856786657698094,0.5052556563617565,0.8405224209020349,0.462717750037464,0.8395824795683643,0.678615036463552
3.265,0.9926243517333304,0.5097180406093897,0.8422338437989169,0.465856727961563,0.8438503482926227,0.6839750345984835
3.27,0.9948873441607665,0.5104046821070249,0.8431871458627436,0.46668470133624046,0.8476795526262905,0.6880742890345307
3.275,0.9959189231464008,0.5086545495588527,0.8428981926518615,0.4664557115179886,0.8507153908382645,0.6929038721070824
3.28,0.9975968904730417,0.5086002987059235,0.8414303378127205,0.4668396405825245,0.8537748224211734,0.6998991910212706
3.285,0.9991725922972715,0.5119537447699616,0.8397649092463336,0.4683490631427714,0.8576215374521251,0.7068308412509824
3.29,1.0000000000000004,0.5161126078164043,0.8394741083081639,0.47036360762592044,0.8623296542575858,0.711148051354078
3.295,1.0000638569233558,0.5174686377475015,0.8411888987615476,0.4720613816675282,0.8673234444616734,0.7139839535971945
3.3,0.9981936357918163,0.5151836183425738,0.8431586570835564,0.4732786273990374,0.8709419524968728,0.7178578385957537
3.305,0.9927746124114888,0.5110998570466276,0.8419767385757165,0.47460756917732244,0.8715245177811527,0.7224063576243303
3.31,0.9844443010822053,0.506876308624661,0.8356328712472421,0.4767020962023282,0.8706043231559071,0.725599904657371
3.315,0.9755935007100417,0.5022297379557225,0.8258555571128801,0.479535863538259,0.8730461842600273,0.7277382275000981
3.32,0.9670661097043692,0.49578203048525615,0.8164029452927891,0.48232635873438406,0.8814123310947934,0.7309784119859399
3.325,0.9578653323651207,0.48693312761051366,0.8087062324309667,0.48414998520369484,0.89162413077181,0.7357121196055361
3.33,0.9482242794703489,0.47702358918664745,0.8006201616206512,0.48481979962807653,0.8970738414160586,0.7403167060120527
3.335,0.9399741243191785,0.4690036710372601,0.7903334495191342,0.48527218559567564,0.8962034074082958,0.7439012772382646
3.34,0.9331529024686657,0.46511697070381364,0.779467708573811,0.48664303820062993,0.8933040453895751,0.7465636328044395
3.345,0.9253072365459981,0.46393756273293874,0.7700660385661435,0.4886299473505153,0.8923229317835881,0.7473173699300731
3.35,0.915496024385918,0.4608109363500144,0.760379761012549,0.4895256288291766,0.8925378266850084,0.7443675795783551
3.355,0.9060333142108308,0.4530401981730394,0.7474632669390324,0.4887387149659052,0.8903561330877795,0.7372971103284252
3.36,0.8983275002822443,0.4436335636748972,0.7333866427287039,0.4884446573434723,0.8829600928780147,0.7266302265982452
3.365,0.8898521532129441,0.43739601515878024,0.7242856604171612,0.4910827035487104,0.8694273595796114,0.7112922395236608
3.37,0.8781026724513331,0.4342007474792439,0.7220481086104312,0.4954853849536942,0.8497291876611115,0.6886959410246272
3.375,0.8653423742023534,0.42951509424776985,0.7210435408351096,0.49747747003417664,0.8235672675787812,0.6573917351714753
3.38,0.8558456848862147,0.42106983857017566,0.7152392903835864,0.4947256368098139,0.7900666958029614,0.6177211733029498
3.385,0.8496278583910084,0.4109215728706853,0.7050683006767616,0.48910141755752035,0.7488180676359435,0.5701266310194767
3.39,0.8427414802509567,0.40118589079382655,0.6947368656252914,0.48337490107551767,0.7015003481695441,0.5152482786827766
3.395,0.8335821638111325,0.3926736318710685,0.6861574582815368,0.47732268651299603,0.6519309824654902,0.456077959158799
3.4,0.8250004032062972,0.3875636893743538,0.6790680370701258,0.468468304287652,0.6039875247334922,0.39783544831275425
3.405,0.819279527953326,0.38691666365264205,0.6745978263460837,0.45540494820288335,0.5596745402895622,0.3447977970758942
3.41,0.8146621937648177,0.3850625638679845,0.6745098323990648,0.43890733739191945,0.5191594519513051,0.29847924327655173
3.415,0.8088374011466378,0.37498060868470184,0.6777252279987203,0.4205534546544953,0.48209629799464815,0.2590335225365311
3.42,0.8029006660968014,0.36146265819589474,0.6807251343929939,0.40150572398654266,0.4489393387716268,0.2265669464799878
3.425,0.7989893570287634,0.35852717182399,0.6810447678996401,0.3820509461918777,0.42133964079188224,0.20038035484547134
3.43,0.7959735819234556,0.36851940516104387,0.6785314983951365,0.3613994699780547,0.4006415772250579,0.17859408849081082
3.435,0.7909019585783618,0.37495559758645713,0.6743700280890076,0.33870594983621294,0.3854772697018647,0.15972718111812664
3.44,0.7839177136590159,0.3649642339053999,0.6706543509487731,0.31515051523189236,0.37222935316426214,0.14383824290872882
3.445,0.7782618011511855,0.34833199504685053,0.6692208348913115,0.29393434997199913,0.35911402501991047,0.13140732172951738
3.45,0.775144419008188,0.34225968912906324,0.6689617823026329,0.27702825416938115,0.34817008584093745,0.12193852442928318
3.455,0.7719097430331952,0.34635069570370125,0.6662014391965149,0.262957789116644,0.34141023201917176,0.11440517891266913
3.46,0.7665274260922866,0.3476618049552588,0.6595437270639977,0.24920404812734553,0.33698329275437183,0.10840745801297998
3.465,0.7610589903604418,0.343458390254956,0.6518112906443908,0.23578787628192044,0.33184563016898644,0.10412750911812499
3.47,0.7585641017370144,0.34125713714019157,0.6452091230008378,0.2247020277847093,0.3264094746314957,0.10151522942640809
3.475,0.7585978502871006,0.34025135969147763,0.6380869738326502,0.2164896518315875,0.3232353770098542,0.10016484000165633
3.48,0.7582576649516963,0.33211016385966,0.6295592869648325,0.2094566195711098,0.32275810111961867,0.09988961482427022
3.485,0.7563689966830884,0.3198888957875831,0.6234671701521742,0.20224956587067136,0.32403993283118365,0.10100078215701157
3.49,0.7539836782091188,0.31634414057698457,0.6231967929451775,0.19542931995182988,0.3280070406304564,0.10393426651855595
3.495,0.751516690130854,0.320692810347975,0.6255979677635517,0.19019153640138797,0.3353201105732921,0.1086686265901744
3.5,0.7482823411770394,0.3168443656787628,0.6251245336707705,0.1869617099804779,0.3424694186790411,0.11453444651387423
3.505,0.7448428216516207,0.3003739248513138,0.6216763500069203,0.18563742141507047,0.34546906171928804,0.12071649929074783
3.51,0.7430204990081126,0.28758119725289943,0.6192178601183332,0.1859996453581999,0.3467410879569415,0.126989446849332
3.515,0.7429453854915614,0.28898591588390143,0.6187878982599325,0.187354116606322,0.3524265298389892,0.1337329175788803
3.52,0.7424882666967725,0.29294075190964436,0.6183252117037282,0.18861559635360553,0.36295044465206916,0.14116919360320415
3.525,0.7405144229736593,0.2878078348510129,0.6175534692366995,0.18923562306962538,0.37258372749983937,0.14901071500032742
3.53,0.7385408770543366,0.2826772047423262,0.6174325632891232,0.18962089983531097,0.37888604885257554,0.15707805212109707
3.535,0.7381110649660991,0.2899658292748803,0.6165903811313536,0.19057901825405296,0.38562840853081026,0.16576021914044387
3.54,0.738580802383692,0.30180258287100015,0.6141977834425775,0.1928061624798539,0.39469488558210236,0.17541410975684782
3.545,0.7388162626827636,0.30218534490207816,0.614333587473148,0.19667706237704116,0.4023261905471275,0.18567908785722434
3.55,0.7392384239472282,0.2926370438126166,0.6206565434675079,0.20177101933463004,0.40662491081219454,0.1958982185413546
3.555,0.7407141533763145,0.2875216384547627,0.6284879655452,0.20669695734198865,0.4121928151152215,0.2059936572377489
3.56,0.7429801783784657,0.2911453010999163,0.6300056111722467,0.2101737710168398,0.42293004484532415,0.21647354799834995
3.565,0.7454567344294293,0.2974815592528236,0.6262781462024452,0.21235867834308253,0.4356198153737259,0.22772816350851316
3.57,0.7479799364546884,0.30720609988782627,0.6255518653588007,0.21456251524879988,0.4453725907019416,0.2396773842397817
3.575,0.749639542062127,0.326267467931003,0.6298333852897745,0.2177364032843105,0.4530003973336879,0.25194547638814657
3.58,0.7492097156589205,0.349323266898589,0.6327452821046726,0.22176899182016485,0.46222940220222947,0.2640704677667843
3.585,0.7483320635502974,0.36175276230824677,0.6318210917946714,0.22607565139827432,0.47325284625362674,0.2757331873284655
3.59,0.7513547731561376,0.35907765637401684,0.6325933419489341,0.2302275401823612,0.48375984434752284,0.2871074507943546
3.595,0.7591318636891812,0.3509605620591877,0.6373098169457305,0.2340606278081895,0.49356357216471597,0.2988589618620143
3.6,0.7656081157363354,0.34632191629086184,0.6397915068245958,0.23767008237487752,0.503984490507552,0.3115457599719542
3.605,0.7646252310825464,0.34709421492120307,0.6366667181716219,0.241240485453221,0.5148797403874743,0.32509677239527357
3.61,0.7584713642888247,0.3545934956445429,0.634378638778144,0.24464234845767133,0.525745101716994,0.3389541935054204
3.615,0.7550520367502452,0.3673634415160875,0.6382604744347291,0.2475738102246864,0.5375279915222,0.35250881929852124
3.62,0.7573060980920286,0.3737271057690649,0.642763836120309,0.2503642908553349,0.5504633171262715,0.36535413182684245
3.625,0.7605177356659072,0.3624087092307988,0.6406188087853654,0.25396062601475095,0.5626535997901202,0.3774898453287699
3.63,0.7605317484637845,0.34156977782859277,0.6351668283358042,0.2585892352146155,0.5733974188339698,0.3894502213161949
3.635,0.75922544288875,0.33161992984598015,0.6345914061419522,0.2631396814496088,0.5849404149811431,0.4018794200600944
3.64,0.7597332418766586,0.33714726949274937,0.6384579340364336,0.26657165666433114,0.5982255600752445,0.41473661179524346
3.645,0.7609957608694469,0.3421307739610297,0.6391876162134591,0.2692546541948336,0.6101933972751719,0.4271784543332513
3.65,0.760507556085996,0.33618342539856777,0.6343359056093629,0.27212064362428195,0.6183771120052962,0.4384337153767406
3.655,0.7590860108298025,0.3280353793044862,0.628797443420888,0.2751727812605586,0.6250477472508833,0.44858199902778234
3.66,0.758967308033482,0.32662555292746975,0.6259174713582203,0.27777772773280063,0.6336095398519241,0.4583164434316143
3.665,0.7592826847640325,0.3261857832284003,0.6241960360061088,0.2798615834492568,0.6437519556447643,0.4681452105497212
3.67,0.7573544828476051,0.32022981770377623,0.6228406832055611,0.2818277675659069,0.6531174680701107,0.47796605199019226
3.675,0.7534536214527625,0.3152896668093949,0.6237327713324777,0.28376643953028624,0.6608345861650042,0.48726497538505126
3.68,0.7507620599003275,0.31821998470739177,0.6267578903444652,0.28569550494713486,0.6666718769538628,0.49561783750424915
3.685,0.7509396521923507,0.321938812939975,0.6284412771159301,0.288104976117156,0.6699669499185829,0.5030404711877681
3.69,0.7526248729900167,0.31727313005123503,0.6265679651497346,0.29129347454239374,0.672169496159143,0.5097834846932275
3.695,0.754148515376385,0.30943922006223007,0.622527728118083,0.29463136584253147,0.6768354156733131,0.5157276595606937
3.7,0.7550441107688343,0.3089032921958095,0.6185863588462027,0.29743699581948163,0.6840841970151474,0.5202383873211931
3.705,0.7548474364431027,0.3132689377087501,0.6159855217410413,0.30003583445889426,0.6889032175263535,0.522849769522458
3.71,0.7530119510346279,0.31229767681177606,0.6157184884076571,0.30288148886914695,0.6882754133289513,0.5238314682534435
3.715,0.7504728150166994,0.3055848758752737,0.6181124175612803,0.30523257723812447,0.6859552942654967,0.5237528049749524
3.72,0.7491250423366619,0.30131952235644327,0.6215539400121264,0.3060988952532469,0.6863922981019243,0.5227278386104545
3.725,0.7492608154139115,0.3010206029143387,0.6239713320444172,0.30621601370303253,0.6879911302502832,0.5204825561759613
3.73,0.7494476073738373,0.29926502640487324,0.6252100000083317,0.3075981277851038,0.6867314826393879,0.5169814714597313
3.735,0.7492993732403063,0.29684914248665445,0.6261630465345709,0.31094457004293863,0.6826186115792798,0.5125748276540335
3.74,0.7502469836216028,0.30074118087017965,0.6268309277538097,0.3146316489187544,0.6777667237959027,0.5075958778256036
3.745,0.7528832373329845,0.3105515244254914,0.6271944825647129,0.31662359645003313,0.671557979568084,0.5020589682513007
3.75,0.7556126316468559,0.3172909952335616,0.6282535512520132,0.31661342997587794,0.6627871481218125,0.4956189413847424
3.755,0.7569730099997072,0.3172470165403862,0.6300274553335314,0.3159750733832254,0.6536990673355351,0.48772518157993977
3.76,0.7574996371143335,0.3160761628446096,0.6304946685484415,0.31612338956902725,0.6468957721890499,0.47817890022602455
3.765,0.7581169140068148,0.3169392159873773,0.6286693336183433,0.31721004481799964,0.6407523547395796,0.4677215851179077
3.77,0.7583665306517426,0.3154062185126213,0.6264112768642056,0.31825650663415045,0.6325470752027306,0.4576457523854417
3.775,0.7576557977478231,0.30978171127921816,0.6251587817308077,0.31839545100317374,0.623544255480308,0.4486328681929431
3.78,0.7568020902214415,0.30640216668944015,0.6239802343732709,0.31771602089129686,0.6164270854021364,0.4404523950730843
3.785,0.7567186105754815,0.3092825734973723,0.6231713593844089,0.3166893646542356,0.6104471357415119,0.4328776845951995
3.79,0.7567940260955114,0.31273537377478194,0.6256278354365589,0.31538832895874863,0.6037231792805243,0.42611723532170687
3.795,0.7563400159032456,0.3104739228294156,0.6311957098596175,0.314074367247478,0.597433006915045,0.4201158171034225
3.8,0.7565359740657702,0.3057143571751261,0.6342314467521951,0.313792094398191,0.5930574149129405,0.4143717291053705
3.805,0.7587636585092046,0.3058524363275527,0.6316113815601658,0.3149030801852483,0.5887788834749469,0.40887553405971555
3.81,0.7616849184716866,0.31163666507074095,0.6288185787059661,0.31573423983417365,0.5836559114080462,0.40429860188435734
3.815,0.7624766892296833,0.3175845944451934,0.632030016084941,0.3148571486457403,0.5815215425808741,0.40082094234568916
3.82,0.7610397883973338,0.32003330069944663,0.6380299506445594,0.3141663673967564,0.5846098536951417,0.3978829653516976
3.825,0.7605473011387733,0.31964051879161043,0.6393207812951434,0.31660079019682874,0.5870973706768304,0.3956458855357523
3.83,0.7630800122574715,0.3181931869341123,0.6364203346202618,0.3207355345747001,0.5824644413223182,0.3953437725369699
3.835,0.7668703914270745,0.3173130674268494,0.6366524236711838,0.32158740032944544,0.5745062566685887,0.39727064259276684
3.84,0.7691361708304434,0.31860408612467817,0.6418332026667135,0.3180547252901522,0.572810085644886,0.39974263607606536
3.845,0.7698241884754579,0.32158695881727445,0.6458643381588384,0.3153555910606898,0.5787879461394329,0.40125150265817416
3.85,0.7707127074496399,0.3231013830174178,0.6452470149392793,0.3176079237427276,0.5845638805728784,0.40245222790275814
3.855,0.772059335521979,0.3214532965243039,0.6438165041904934,0.32200520055327697,0.5853624904819242,0.40466595336934497
3.86,0.7725271357837511,0.31906858086138323,0.6450049534167377,0.32384152597695737,0.5847171243137556,0.4075369357570473
3.865,0.7722338494531468,0.3185147152806777,0.6467178253122291,0.3236328884277356,0.5865489918186838,0.40977627991672205
3.87,0.7734545102656332,0.31853262539579263,0.6468662203237059,0.32473741231190867,0.5897943473852097,0.41142005293454725
3.875,0.777273305945409,0.3170855502459872,0.6476959868136982,0.32691021930572495,0.5927073507033829,0.4137580538757401
3.88,0.7812162314726708,0.3157545895652554,0.651101552163681,0.32757087760263887,0.595900086306845,0.4175120852187236
3.885,0.7820004803286734,0.31734848177582803,0.6548315169800962,0.32748371207784127,0.5991564568862311,0.42230657825814083
3.89,0.7800872538425564,0.32093549239999725,0.6568752780797629,0.3294986100854778,0.600918818821748,0.4273520929434413
3.895,0.7796120085536273,0.3230474180235722,0.659105384856608,0.3327291831182161,0.6024173997158144,0.4317009093158413
3.9,0.7833169362772779,0.32289172984982195,0.6630478469046872,0.33369277945001113,0.6067918851922687,0.43478488847801455
3.905,0.7891238964458946,0.32318274343394443,0.6661296851077655,0.33277066414796264,0.613033059233674,0.4376445824691157
3.91,0.7929938873925452,0.3263754403765809,0.665896724823849,0.33373644641695815,0.6167034172467513,0.44225936386508014
3.915,0.7941081084391898,0.3324047181541061,0.6645291087001693,0.336794772983227,0.6178454829037532,0.4485464623657731
3.92,0.7952558747157391,0.3391311804597357,0.6653554380192926,0.33810314311168554,0.62173314993123,0.45386014465435126
3.925,0.7983396079181011,0.34303098286617256,0.6677188697518223,0.33697128059839704,0.6299059318195249,0.45704789191815126
3.93,0.801868457977841,0.34123927195828496,0.6690969643530597,0.3373824954545502,0.6370575240225653,0.4607861586751629
3.935,0.8037730258208208,0.335384939256845,0.669978934686705,0.34081846520745,0.6396101700869098,0.4674758753264901
3.94,0.8045175233456444,0.33138662398069235,0.6727245355700782,0.34372419483734934,0.6411184831567147,0.474996312319811
3.945,0.8056247533234457,0.3325774688399184,0.6771577081645823,0.34438060176236224,0.6456576574587615,0.4798527621035944
3.95,0.8067674144799457,0.3353884247911356,0.6810527553536458,0.34605909324647005,0.6515697062868891,0.4828683184995848
3.955,0.8067741352590614,0.3355866199782003,0.6841344960185073,0.3500792377766363,0.6558094252989621,0.4877534827062799
3.96,0.8066061319613566,0.33628168390073265,0.6881274688529795,0.35194678460527534,0.6594157858216098,0.49491620435238964
3.965,0.8085590855008843,0.3441139286070735,0.6929926252592918,0.3491070416462467,0.6642870431283661,0.5010666621522285
3.97,0.8126343032737506,0.358127649038626,0.696155718549917,0.3470803437332611,0.6689275186115163,0.5050059399576515
3.975,0.8164239010003408,0.3684613063426588,0.6961343468479761,0.3518801056658421,0.6719090523470045,0.5094096598251435
3.98,0.8189805332000069,0.3678137304644028,0.6949030501706241,0.3603279168577719,0.6757247509482164,0.5158885126618059
3.985,0.8220571722874385,0.3598608334899705,0.6957629904892335,0.3644526990942842,0.6826435267672066,0.522327361085984
3.99,0.8265446833217753,0.35412900090741767,0.6998648458798719,0.3629546775680332,0.6900798583781861,0.5268687787923851
3.995,0.8303832221716467,0.35569061236118266,0.7054030507795389,0.36164020345568154,0.6946345412223339,0.5311085166517158
4.0,0.8317863651758792,0.3619896810709524,0.7097409559995729,0.3637221673228825,0.6977382143303782,0.5371142117280618
4.005,0.8324272826991849,0.3673602964197178,0.7118950249624637,0.36631667667518525,0.7026401319240388,0.5439510357294678
4.01,0.8352297469477276,0.36855513552527663,0.7128557291912219,0.36689301701428245,0.7084844316618771,0.5495472515312839
4.015,0.8403579719710024,0.3671973658866117,0.7137253685030105,0.3673253647551027,0.7123233509944822,0.5540539611904328
4.02,0.8455115075077013,0.36800131487735926,0.7145080783843003,0.36992180636059896,0.714934096573317,0.5590928743905221
4.025,0.8492520931751169,0.37353898579368555,0.7154603133305676,0.3738285705389459,0.7195674546742288,0.5650484959827402
4.03,0.8519829685660373,0.38073918977818794,0.718439529912797,0.37724151737076045,0.7262760299818778,0.5710787087774731
4.035,0.854201225183621,0.3843985401575246,0.7249315941111295,0.3799481624105839,0.7323788053064323,0.576813301082298
4.04,0.8557731077528514,0.38388346184368577,0.7330257848588514,0.3820698566735742,0.7376926886797596,0.5823968292504517
4.045,0.8569205074173045,0.3836220501897858,0.7385775045094833,0.38292794904545674,0.7445058802427611,0.5875987034397393
4.05,0.8584544296243714,0.3868312169048537,0.7399343138128519,0.3826607877524266,0.7526875887281187,0.5921912266389254
4.055,0.86090693467812,0.3919987970802849,0.739738317081447,0.38292528732752545,0.759446326180554,0.59662228114126
4.06,0.8643056645266712,0.39633812106187755,0.7413755108777449,0.38476507891126366,0.7641195718004518,0.6013943789280772
4.065,0.8685553318335413,0.3993023453228008,0.7453250375742322,0.3873467608879339,0.7688649775250167,0.6063638842974923
4.07,0.8732359724529485,0.40116802561150067,0.7499243790493011,0.38955374691730915,0.774153395394439,0.6112145000778973
4.075,0.8774296372324635,0.4013387174738412,0.7541197640814138,0.39131990253694704,0.777967717531309,0.6158860608331711
4.08,0.8805017499153265,0.4001854405911111,0.7579677110409978,0.3928687618157631,0.7805051587973151,0.6202213121627292
4.085,0.8825789229555491,0.39994958611492404,0.7612681763204152,0.3941350027209046,0.7852299703127019,0.6241588497032257
4.09,0.8837274002870839,0.40152532925508777,0.7631906538931662,0.39539102861574066,0.7931017943003127,0.6284767830212278
4.095,0.8835768811438509,0.4025220191128127,0.7632806283662238,0.39710076913748654,0.7994891200868703,0.6341208268025436
4.1,0.8825177813976767,0.40081072196791323,0.7621033321538179,0.3989077891825654,0.7998215323393146,0.6405483186779602
4.105,0.8821379445293823,0.3980716616106732,0.7606843684580307,0.4000733114613249,0.795813305289207,0.646102316704963
4.11,0.8832435527313202,0.3974163373519465,0.7593494168320211,0.40094001557569114,0.7930060169623102,0.6503258233493534
4.115,0.8842112474538565,0.3989839042916056,0.7570421662303001,0.4025425427292045,0.7937809923392228,0.6544395040818622
4.12,0.8824653645791334,0.40014971022687823,0.7520420449691768,0.40483151292422676,0.7959559589748287,0.659194499839409
4.125,0.8770697819213346,0.3988386632724366,0.7437080047119347,0.4068250436764265,0.7975782391085492,0.6638924124715093
4.13,0.8690950437882039,0.3945400430192443,0.7332394507027548,0.40843607120809183,0.7999249718644519,0.6680685619283631
4.135,0.8602159372834475,0.38722763960159295,0.7223499408602576,0.4104604076668693,0.804998109034906,0.6724862628618868
4.14,0.8516966920955441,0.37743413107343277,0.7116592004651383,0.41275503391444124,0.8120388895835968,0.6776987821769684
4.145,0.8438489158876842,0.36666001682250404,0.7008956447907423,0.414241582219571,0.8178471650017561,0.6830818515435034
4.15,0.8357619792590695,0.35610310353956964,0.6900267207989378,0.4149169768858493,0.8200841859814568,0.6880033396225863
4.155,0.8264565094617005,0.3459119618077196,0.6793001478594195,0.41605919278256226,0.8196577692768082,0.6925109570728378
4.16,0.8165948959458956,0.33690845404255404,0.6685480433003523,0.41805179419439165,0.8198006850607433,0.6961523863632088
4.165,0.8075713222263271,0.3312298636861404,0.6573545731318347,0.41972833272586313,0.8226419823347403,0.6976053718217228
4.17,0.7986669999838729,0.3291356110247922,0.6458596167923522,0.42042993146294255,0.8265434096609671,0.6963077993607125
4.175,0.7873932405973058,0.32674002779268785,0.634899232856131,0.4211020795108153,0.8271828868881909,0.693016038228782
4.18,0.7735069270841741,0.31966706446490606,0.6254426583718424,0.42259144632683276,0.8214947870303361,0.6877898892701794
4.185,0.7601197453659707,0.3082309244086007,0.617908261188011,0.4242108974436136,0.8100114761988612,0.6786825459311836
4.19,0.7494113188071548,0.29650485575624175,0.6114641640485217,0.42485470807776077,0.7949828612199873,0.6633568653387445
4.195,0.7398638422838644,0.28688388979945806,0.6040836074554737,0.4244970213585721,0.7769529397193232,0.6408598146252323
4.2,0.7295574407689948,0.2783895610167616,0.5943139189751777,0.42373770420919876,0.7540093159935015,0.6110029564281899
4.205,0.7194230495608553,0.2702968519608764,0.5830505544538869,0.42255344753966895,0.7239866918828082,0.5733384948088612
4.21,0.7108002838572334,0.26422247154074546,0.5723823071275121,0.4201488788766594,0.6865667456179002,0.5280225513719428
4.215,0.7024571078075974,0.26110542749556165,0.562808735704477,0.41557816677097603,0.6434534295704528,0.4770020966899156
4.22,0.6930592068125744,0.25825550068952396,0.5533138175886021,0.4081085689559868,0.5974201959398939,0.4234763349695243
4.225,0.6842840440213364,0.2517961568873732,0.5440960277207225,0.39732636296057766,0.5513857702589843,0.37069640930905884
4.23,0.6781405738432015,0.24173020716448912,0.5367428443588041,0.3831508281592784,0.5078347394979498,0.32157665540010705
4.235,0.6731691612056304,0.23265429328349158,0.5311655007225016,0.365744251735968,0.4686295277218591,0.2783369001622255
4.24,0.6668185410383372,0.22850997234462908,0.5251289187084635,0.3457924536133307,0.4349520163199429,0.24166058923011333
4.245,0.6598399959886224,0.2276393770161656,0.517983698956987,0.32502790586212155,0.40684670804551243,0.210739979312273
4.25,0.6545651016886284,0.2247225537204227,0.5121047984879127,0.3054578042434071,0.3828797931577586,0.18449563448265488
4.255,0.6503016953796391,0.21763462606486905,0.5089839359452966,0.28716417802530475,0.3612619364245507,0.16213563464653094
4.26,0.6444526877731729,0.21018029541849292,0.5064830127275709,0.26776793177517727,0.3418104705930883,0.14263548144954286
4.265,0.63720441389743,0.20654990317344352,0.5018759549962912,0.24542369910003697,0.32594641466502,0.12495211177822185
4.27,0.6311577112176422,0.20510886061180172,0.4952666265774929,0.22177070425024015,0.31426945995831324,0.10908664559414065
4.275,0.6270153075592717,0.2007974124692771,0.48821659120906,0.2004547389170404,0.30531580798175806,0.09584629456616613
4.28,0.623401287034498,0.19294932719723704,0.48155533093479436,0.1830990385382265,0.2975460160304961,0.08534720986704794
4.285,0.6202020581713904,0.18680301799603938,0.4763199594504494,0.16826382687511682,0.29119953759585193,0.07693084249296128
4.29,0.6181596051803938,0.18608909723683842,0.47376839795578196,0.15418305129563045,0.2868955760371812,0.07065054596926301
4.295,0.6158016298822823,0.1875049026896178,0.47231594180372993,0.14088030804150675,0.2838211656814402,0.0673099387108603
4.3,0.6109583407254484,0.18517797294491403,0.46807539024747186,0.12941078808156656,0.28112978028527513,0.06663345783719982
4.305,0.6050396830074878,0.17872791239692468,0.46123362548211777,0.12048065539575022,0.27984894105684943,0.06694374041029574
4.31,0.6016039546473567,0.1738157170727149,0.4577054746217865,0.11424836137541959,0.2811144559111874,0.067302409435313
4.315,0.6006757865059074,0.17478966655668793,0.46037645538823374,0.11041334812537953,0.28359160382288207,0.06860220481789213
4.32,0.5986807089979517,0.17917527172946016,0.4629284174735078,0.10808682390690198,0.28532865878603214,0.07184486106990916
4.325,0.5943416093245585,0.1807075043809358,0.4581223609977557,0.10625595894801235,0.2872499939735139,0.07662519769155339
4.33,0.5905198135574093,0.17681706768044186,0.44900690070856186,0.10448358562122233,0.2916116521636252,0.08208015837527412
4.335,0.589472394796343,0.17110648758677263,0.44499650004547436,0.10269837640353381,0.29763251518281,0.08816366653171845
4.34,0.5899907041183647,0.16762367995570068,0.44847650667226946,0.10078045558108503,0.3024534571752877,0.09516741464414753
4.345,0.5900721073628291,0.1649780365826547,0.4525913436624095,0.09915740648680581,0.3062454264963984,0.10294178342575376
4.35,0.5892053610309188,0.1595950320501395,0.45223562901695996,0.09912196705212753,0.311920278928212,0.11125557012009679
4.355,0.5875266935011252,0.15390573709805525,0.45007860079599815,0.1013453513264383,0.3192495966503294,0.12000079942438388
4.36,0.5858184281405743,0.1554860401465784,0.4501464518760478,0.10464933458236264,0.32441730599954943,0.12851654847730232
4.365,0.5863692005541751,0.16565473408712614,0.45162954904798003,0.10764692508769001,0.3271961039215996,0.13578777599985145
4.37,0.5903867554795742,0.1747715043198248,0.4517323272511717,0.1110630987308762,0.33315219923153794,0.14199693674228572
4.375,0.5946831983027723,0.1740443007076613,0.4501673552940842,0.11672362422690406,0.3453089135387178,0.1488997345490272
4.38,0.5948462171185261,0.1672859929826235,0.44836115504683804,0.12445993867704165,0.3584680652304175,0.15787946938217726
4.385,0.5917442981681584,0.164053427366046,0.4475629367549683,0.1317717111939009,0.3665274720297638,0.16834183396341623
4.39,0.5905883586278082,0.16502604743577012,0.44927754411084,0.13666014675609423,0.37158906743501907,0.17865209239480148
4.395,0.5931734069756545,0.16334216528048606,0.4542325444619759,0.1392630896703935,0.38015039705061926,0.18800774802772868
4.4,0.5957493992226184,0.15852312111895797,0.4597993998922647,0.14064208181803856,0.39282148084938096,0.19686110341739585
4.405,0.5956795557356247,0.1581416933165211,0.46193695961816744,0.14164188232052982,0.40405299415323936,0.20611735091641506
4.41,0.5954671548150899,0.1642399794192906,0.4606065819693088,0.14328685871972985,0.4111954053848961,0.21648368362858164
4.415,0.598075543172034,0.16870995419743018,0.4595471529795683,0.1466519997598568,0.4178978214499417,0.22825761355382984
4.42,0.6022118474343269,0.16629692745498975,0.4600141829432045,0.1514950355345121,0.4279142975183941,0.24136665595218487
4.425,0.6047982514003913,0.16308086410173656,0.4592582117947384,0.15596200441221889,0.4403617764656779,0.25563423486395137
4.43,0.6051803944970413,0.1664552620109582,0.4565184421552823,0.1582835364647363,0.45236816747452196,0.2707903906386919
4.435,0.6045177317286652,0.17410857376398714,0.45559656637198165,0.158311380394852,0.4628388030798254,0.2860392479547744
4.44,0.6032127477702696,0.1789787547255502,0.45893998838663713,0.15737912365503073,0.47250439503048663,0.30029689963906614
4.445,0.6010778612178117,0.1790636595889118,0.4633346836062872,0.15726768714102218,0.4829163621848632,0.3134984267599414
4.45,0.5987371578794576,0.17656695512997297,0.46444781903023025,0.15909066184072962,0.4957591327137515,0.3269282681850123
4.455,0.5974316092449871,0.17284463496680713,0.4623832902325266,0.1624491538373389,0.5106099830393266,0.34133316502380273
4.46,0.5979267132235535,0.16973352294243346,0.46008428768413706,0.16589518112729285,0.5236881838114443,0.35548040556962884
4.465,0.5996460063392987,0.17051170541319982,0.4592060225225011,0.16868311311320128,0.5319572782773107,0.3677882069101457
4.47,0.6004104640098075,0.17409262739646297,0.4599133550090135,0.17135248172690437,0.5382382976950365,0.3786875534527815
4.475,0.5983065926062323,0.17374447544371457,0.46171357287823794,0.17419802044364877,0.5486152011406391,0.3899494232996202
4.48,0.5947010628517976,0.167009082658875,0.46223993864300295,0.17675733915542674,0.5642897336501251,0.4021684302550617
4.485,0.5930052858217624,0.16087806160530327,0.4585111194366424,0.17980632064410182,0.5794282206597237,0.41430371953965694
4.49,0.5930559811622039,0.16118503326500422,0.45186052675751376,0.1855780664787762,0.588126797549087,0.4252573960200776
4.495,0.5906118265030343,0.1635554500287379,0.44814892071255025,0.19378970145868413,0.590852162571602,0.43459786221037155
4.5,0.5851916795297383,0.16212207958590621,0.4502443005915515,0.19971384744568144,0.5930114417906776,0.442322288914721
4.505,0.5833125643580043,0.1603355666484593,0.453807709614704,0.1996971081490377,0.5991310298692006,0.44925786191503597
4.51,0.5888344112381656,0.16394520391321582,0.453793015612673,0.19710381684795225,0.6089627360259495,0.4568996174610514
4.515,0.595090293458578,0.16898617531698795,0.4514158283972749,0.19850124424391127,0.617857083242371,0.46532667229659547
4.52,0.5938019128106702,0.1671609367071791,0.45046932470691037,0.204507661321159,0.6212740882198913,0.4722533614770068
4.525,0.5876725508341447,0.1592558503954844,0.45016229294784715,0.20924598986325565,0.6201684528039397,0.4759087962019372
4.53,0.5854394142218927,0.15295811686692992,0.44711714502218286,0.2095006140403088,0.6203068338127214,0.4776572869066143
4.535,0.5876338808105994,0.15032981254822833,0.4424502772116338,0.2094120176526752,0.6243974131064848,0.479520963227685
4.54,0.5874554457042406,0.14759856221018458,0.4409445761972584,0.21393670482334282,0.6278018319369016,0.48038660942695105
4.545,0.5840849048444708,0.14502661387732255,0.44351337871181373,0.22186214410254917,0.6256333071576429,0.4776669592652266
4.55,0.583826589036015,0.14670530310058663,0.4456927060626024,0.22833048873839207,0.6208673227950013,0.4719032558144744
4.555,0.5876530786439622,0.15182360611680354,0.44418553535811445,0.23111564293408624,0.6195796005094676,0.46625244061449567
4.56,0.5889795655048955,0.15553963569313733,0.4405694739378123,0.23119506317550778,0.6201700637739207,0.46153788458722445
4.565,0.5859031047126182,0.15723638245583918,0.4377559853448054,0.22965548134993222,0.6146713432330339,0.45535138961953897
4.57,0.5847378352660358,0.159219863224226,0.43674248126648424,0.2275377763155408,0.6009571297570582,0.4465371517811178
4.575,0.5880696320363225,0.1595967171525966,0.4378438354462756,0.22704529266500667,0.5864398556437127,0.4371344156897579
4.58,0.5896892085866811,0.1558612089724921,0.44123421211914365,0.2294597293468714,0.5778467977472607,0.42885705005908015
4.585,0.5857936012672721,0.1526891589989064,0.444667991462946,0.23272312313377616,0.573726042376644,0.420755524362393
4.59,0.5816889505346521,0.1557182875151409,0.44418640934395764,0.23389028541319745,0.5695843048986071,0.41174997940778235
4.595,0.5823814853581033,0.16062279490648612,0.4393276739036762,0.23315049505602714,0.5644290105024109,0.4028121063661855
4.6,0.5851424899734731,0.15992267602264792,0.4349151427434968,0.2328093139274933,0.5587806211642337,0.3951275457578337
4.605,0.5863815131047692,0.15717542916614743,0.43533696222939283,0.2332341400420937,0.551424896929296,0.388337107857332
4.61,0.5876691450413699,0.1606446115043577,0.43930884545866883,0.23281652040406312,0.5423375677643141,0.3819985260090268
4.615,0.5899971939293923,0.1658635728047257,0.4427569901281619,0.23151994696415854,0.5350419970244656,0.3767850584118568
4.62,0.5900883828201859,0.16109124105831588,0.44476919480369165,0.2313301310977799,0.5322271222997063,0.3729856425813607
4.625,0.587286066025105,0.14932502018965688,0.44743328751333483,0.23282820775017146,0.5319867699572222,0.36972697434172574
4.63,0.5862296582423441,0.14635353766352538,0.4509338342517285,0.234027208468055,0.5314419377854139,0.36680014841263653
4.635,0.588277956154883,0.15475344618775247,0.45255763672123334,0.2334532976800104,0.5309288133410137,0.36532790840203533
4.64,0.588733056243642,0.15938012441757382,0.45106707701682036,0.23224338932234367,0.5315704326622624,0.3655465736603059
4.645,0.5867161671662247,0.15401594946475358,0.44908736998649956,0.2321313717081567,0.5319473167152196,0.3659252251938829
4.65,0.5879970727222887,0.15229898097001976,0.44973493146074983,0.23295767033460157,0.5306420496627771,0.3656396187462312
4.655,0.5932356079230025,0.16278786834108583,0.45274394465338746,0.2333237125770886,0.5294270951896426,0.36593198642869595
4.66,0.5946140572578242,0.1724619040755597,0.45543484443968435,0.23271015280987076,0.530562242090769,0.3677796557223482
4.665,0.5904572929261045,0.16847273675201457,0.45631993460077175,0.23197072699140675,0.533137951264216,0.37017719534136806
4.67,0.5909943470477237,0.15986836933775886,0.456290531921786,0.2322544152314977,0.5351336241381419,0.3720885365134844
4.675,0.6010464339834987,0.16181180250993413,0.45690752065274376,0.2340245040832684,0.5370125809640129,0.37422567991262484
4.68,0.6094103843172674,0.17137396702462343,0.4587447564586,0.23677287604174296,0.5403607235066378,0.37741722112503556
4.685,0.6065261219549933,0.17583047682962,0.4610746708463284,0.23938626995199708,0.5447995361294322,0.380947878250586
4.69,0.6009350354015128,0.1745289844717079,0.462428914211507,0.2410823490314179,0.5488810755013979,0.3840729516718463
4.695,0.6046800618161536,0.17533915503682657,0.462054413099006,0.24210438013521035,0.552356693743904,0.38762262477627696
4.7,0.6127720970490681,0.17767161889534913,0.46140585049655364,0.24331707741619735,0.5553801425535372,0.3924951874337859
4.705,0.6129664110939519,0.17635856767277924,0.463047241903504,0.24529086056375402,0.5574102796792788,0.397875138976054
4.71,0.6077807122236024,0.17602662269433653,0.4670566789848633,0.24799755801087378,0.55898206973253,0.4024996587162973
4.715,0.6093723814643398,0.1841993773699738,0.4700291556059893,0.2509751409807276,0.562402924289525,0.4066019389934492
4.72,0.6177867184162191,0.1946540509055428,0.469450253145011,0.25339461425359233,0.5685192608992394,0.4112060339163974
4.725,0.622216355862359,0.1949202819668012,0.46756700241388294,0.2544998514880804,0.5749540741051187,0.4164630213150433
4.73,0.6214215441188342,0.18744685108314102,0.4681798491044173,0.25458728612615306,0.5796907296118993,0.42191263802951195
4.735,0.625244143902609,0.18623433727594893,0.47064743100556317,0.2551005745008525,0.5841343687210011,0.42748112634423197
4.74,0.635717183830132,0.19378723927167174,0.47080900964152844,0.25710955292613036,0.5903603250729604,0.4331378485583912
4.745,0.6433482535109919,0.1984178642869673,0.4679651355491635,0.2600750317013632,0.5975697840367619,0.43845742321199327
4.75,0.644299469380514,0.19492342982896912,0.46682188396323754,0.2626837625540811,0.6036580506905155,0.4434829485250971
4.755,0.6459073329973127,0.19139282909299807,0.47094178158681765,0.26442345831013336,0.6082802950138767,0.4491261200541357
4.76,0.6515894392206826,0.19313691161019364,0.4778327971204112,0.26569967299919606,0.6121592472177121,0.4558416603729903
4.765,0.654378911611969,0.19543777186360334,0.48294570101649953,0.26691637717042904,0.6153830858280467,0.46278255973769966
4.77,0.6503636920794152,0.19610253185368803,0.4856767076577979,0.26820688468475096,0.6184560856361023,0.4690059875730894
4.775,0.6461408177968035,0.20077904868593574,0.48850903955955194,0.26969742149412623,0.6228794839347682,0.47459325640938654
4.78,0.6472388432817767,0.21061799238233858,0.4923240894693239,0.27134234415457414,0.6286521048333712,0.4799492569806034
4.785,0.6497064623045712,0.21749556637523265,0.4957016278482679,0.27282183682279654,0.6334842300351516,0.48505089309951693
4.79,0.6488919890973026,0.217245974974595,0.4976894762169809,0.27413845706426204,0.6365288331162668,0.4900815087115575
4.795,0.6474036482808947,0.21616133118782901,0.49861379311224446,0.2758580860265638,0.640335645893485,0.49576234620284043
4.8,0.6488798929084071,0.21862159400322387,0.49897147128062663,0.27826056166308083,0.6467348662610386,0.5022915646487147
4.805,0.6518445402584718,0.21941336602264253,0.49957415988531695,0.2808667897906678,0.6533259197700891,0.50881689523301
4.81,0.6546376788219932,0.21501282720102075,0.5017063940830397,0.2833411276458939,0.6568336287871955,0.5145725699978155
4.815,0.6591043888081731,0.21224997804606208,0.505261707101839,0.2860354647115342,0.6579028514734147,0.5197519190888948
4.82,0.6650303606435236,0.21785452963695703,0.5081489546061756,0.2888901146058433,0.6598985036054629,0.5248433420091932
4.825,0.6680261458586869,0.22747617143414073,0.5095207932224809,0.29073716726179,0.6646439002930056,0.5299356333501059
4.83,0.6671048175088301,0.23271722275035508,0.5117914219168544,0.2908263735634388,0.6715816698588409,0.5349871343092393
4.835,0.6675360036324489,0.23259305463477992,0.5170079108468354,0.29033193892497244,0.6793831720717284,0.5399963956388126
4.84,0.6722174733480637,0.2314309296325177,0.5230539859571451,0.2910880899601095,0.6863828531286656,0.5448308049102516
4.845,0.6769493553840745,0.23150298577658796,0.526382657732772,0.2933386446309484,0.6912558186534388,0.5496847729561793
4.85,0.678253471606214,0.23387845959274797,0.5269522005766646,0.2960065102200645,0.6949453471522129,0.5553971994712497
4.855,0.6792306501801503,0.24054280136911427,0.5274185210149636,0.29871471681363077,0.6998588386205413,0.562197851381336
4.86,0.6833580633195163,0.2492961118219487,0.5291268440549147,0.301998695489154,0.7059559099368619,0.5686613609570165
4.865,0.6886381492649035,0.25204627572581534,0.5324680779482113,0.30560834093781936,0.7105378919060934,0.5734532086166142
4.87,0.692268922471493,0.24482981627438138,0.5395727297585822,0.3081890588639559,0.7132196632560673,0.5775773370550082
4.875,0.6954801982253905,0.23519645322718682,0.5521211891561555,0.309091888794757,0.7172518098292147,0.5829063387561009
4.88,0.6995427640598038,0.2335747514952994,0.5670169203796313,0.3093338897212582,0.7237361287710633,0.5888829970584968
4.885,0.7023326869873134,0.24102521507181507,0.5786684160193418,0.3102200613784105,0.7287475086147174,0.5931577318916125
4.89,0.7030063061464777,0.2508593152631141,0.5857008113995146,0.31191480725135096,0.7294788241669345,0.5956035554978908
4.895,0.7050973975809133,0.25849759790359333,0.5913843893229108,0.3139324523171077,0.7294371125098852,0.5990524028713134
4.9,0.7109252778091374,0.2641867411765125,0.5973717146082291,0.31617383490502604,0.7335780942363939,0.6053067322139563
4.905,0.7174666976721101,0.2691873923353474,0.6015429894963303,0.31856866904636605,0.7413214127381774,0.612739267480867
4.91,0.7214169032934211,0.27459531158775846,0.6028434687752051,0.3202238747381333,0.7483201421120335,0.618847934260571
4.915,0.7238860504784171,0.28157618062708833,0.603616702079244,0.320264776156505,0.7525162707329787,0.6232171912528973
4.92,0.7266987081270256,0.2885012541357763,0.6052773508340036,0.3198419314798504,0.7547640414174569,0.626902381785241
4.925,0.728616356020308,0.2903057840572812,0.6055774906668093,0.32193902848344197,0.7561520332775178,0.6306186705929302
4.93,0.7287147396093744,0.28442799259686874,0.6024664579538322,0.3276969909426365,0.7583652693289754,0.6346730316623748
4.935,0.729097237689914,0.2749599255729104,0.5974862219575242,0.33354278846101865,0.7638563424794311,0.6393904479978841
4.94,0.7307307710917209,0.26784017093390117,0.5929749463531585,0.3343659785237809,0.7719403130133993,0.6447032246210578
4.945,0.7306621377760363,0.26455647852211656,0.5885737709220578,0.3303308930217438,0.7778747993682213,0.6502318440220062
4.95,0.72665032337145,0.2628736502853956,0.5828519334803529,0.32799605972034807,0.7797351089992716,0.6560321831938192
4.955,0.7206380574605068,0.26022887336646167,0.5760403665707011,0.3324388467734417,0.7823720775912544,0.6621650851901957
4.96,0.7146750963663042,0.2540750480574978,0.5686550251831154,0.34031913465737856,0.789638485755766,0.6676966043678995
4.965,0.7075119363639235,0.24300258037706357,0.5593006495751016,0.34420648217038896,0.7968730741857354,0.6716744611685922
4.97,0.6982000870925599,0.2300821083771678,0.5465097474915461,0.34260719096878756,0.7977718973046758,0.6749081053081002
4.975,0.6888565234135104,0.22070690821581723,0.5317116739045529,0.34120215307817453,0.7953655855969318,0.6789924178564101
4.98,0.6806969017628185,0.21470018651261968,0.5181016865077013,0.343962008564204,0.7979672830743396,0.683751442722455
