time,ecg
0.0,0.38790374655694465
0.005,0.38828362291463
0.01,0.3885409391636363
0.015,0.39005675341355267
0.02,0.39139220026182886
0.025,0.3920814275438261
0.03,0.3923064542568838
0.035,0.39217022147366243
0.04,0.39191093317501774
0.045,0.3916378192206106
0.05,0.39128928001355656
0.055,0.39089058987509645
0.06,0.39056038100955415
0.065,0.39046737607565096
0.07,0.39058752138005465
0.075,0.39057319816850083
0.08,0.39018224689682907
0.085,0.3894460496534116
0.09,0.38846596371619113
0.095,0.38760931300920204
0.1,0.38755362386117975
0.105,0.38879661372588037
0.11,0.39141979771188884
0.115,0.3950770559885961
0.12,0.39893863295455345
0.125,0.4020598993748362
0.13,0.4039161030301389
0.135,0.4045125465321443
0.14,0.40430325027792213
0.145,0.40399782220167857
0.15,0.4041169782437382
0.155,0.4046254549081458
0.16,0.4048831095285466
0.165,0.4040426202779884
0.17,0.4018542807198232
0.175,0.3990040469655393
0.18,0.3964679286524522
0.185,0.39477862841294237
0.19,0.39392001781361835
0.195,0.39354362796704484
0.2,0.3931963295461473
0.205,0.39252020125491033
0.21,0.39142048408401303
0.215,0.39016671218300497
0.22,0.38922344056601765
0.225,0.38885684463343806
0.23,0.38900286122656397
0.235,0.38955702392314473
0.24,0.39066215122067666
0.245,0.39256457068020967
0.25,0.3950966155874535
0.255,0.39729340906868565
0.26,0.3975134555457651
0.265,0.3943001173436638
0.27,0.38826205587895685
0.275,0.38392980660343223
0.28,0.3891300773058109
0.285,0.41084780790496067
0.29,0.4494196130700822
0.295,0.4950489642239412
0.3,0.5308461767898821
0.305,0.5418137436689214
0.31,0.5230867720125515
0.315,0.482131311143565
0.32,0.4349484773601561
0.325,0.39800804563895803
0.33,0.3797679965235111
0.335,0.3779813702289036
0.34,0.38399860612328257
0.345,0.38914216971630594
0.35,0.3892934955930685
0.355,0.3858945888598506
0.36,0.382640359050685
0.365,0.38133568125884926
0.37,0.38127550604074756
0.375,0.38121341499098976
0.38,0.38077137211669565
0.385,0.3804565010906891
0.39,0.38078091016772975
0.395,0.38160450962107906
0.4,0.38251088372390823
0.405,0.3832668192205811
0.41,0.38378510046116204
0.415,0.38424070232539337
0.42,0.3850050096179001
0.425,0.3861603905568044
0.43,0.38753211924534353
0.435,0.38898831827004227
0.44,0.3902669897151913
0.445,0.39104459737822417
0.45,0.3913707999617937
0.455,0.3915761741290664
0.46,0.39188159795223176
0.465,0.3922807682502491
0.47,0.3926077611499253
0.475,0.3928052577080266
0.48,0.39311015456350645
0.485,0.39380025196924173
0.49,0.3949874731560177
0.495,0.3966230870553584
0.5,0.3984046750065846
0.505,0.39995584690346536
0.51,0.40118542565358806
0.515,0.4021245043878272
0.52,0.4027190915322972
0.525,0.40307343774699
0.53,0.40347426501065364
0.535,0.40416899066622974
0.54,0.4053435579163729
0.545,0.4069431826180953
0.55,0.40843685475948177
0.555,0.40907866111242375
0.56,0.40832451356038085
0.565,0.406118582311321
0.57,0.4031381461397428
0.575,0.4004881937357804
0.58,0.3988341692722483
0.585,0.39793795562753487
0.59,0.3969327259724145
0.595,0.3949902867949456
0.6,0.3920063894678977
0.605,0.38871626152801636
0.61,0.386190546667901
0.615,0.38531581117047087
0.62,0.38633826122751236
0.625,0.3885491748818463
0.63,0.3907173420851338
0.635,0.39198563584318163
0.64,0.3922267933794228
0.645,0.3917657921267628
0.65,0.39103226934750285
0.655,0.39041887513884665
0.66,0.3902516177277751
0.665,0.39063027266469635
0.67,0.39130799932301147
0.675,0.3919613276956738
0.68,0.39245931159664615
0.685,0.392745016987272
0.69,0.3927694056985986
0.695,0.39261539028839737
0.7,0.39243813736504973
0.705,0.3923423498086982
0.71,0.39239572359550867
0.715,0.39261406382282005
0.72,0.39293275297462454
0.725,0.3932272347937966
0.73,0.39334253990845375
0.735,0.39321299443758606
0.74,0.3929226777503403
0.745,0.39256229158690253
0.75,0.3922192976853853
0.755,0.3920886659812563
0.76,0.39229539628202126
0.765,0.392712450530487
0.77,0.3931616833685216
0.775,0.3936268014871873
0.78,0.39419479875303653
0.785,0.39491448046590044
0.79,0.39573698113560474
0.795,0.396586965673781
0.8,0.3973783363808987
0.805,0.3978593475013428
0.81,0.39771008553097076
0.815,0.39694028433485873
0.82,0.39590471028161556
0.825,0.3948866298916223
0.83,0.39386843024216783
0.835,0.3926528858268953
0.84,0.39117633566016324
0.845,0.3897765741333846
0.85,0.38908024728053947
0.855,0.3896395711083531
0.86,0.39165726096706815
0.865,0.3947938494089141
0.87,0.3982228838851171
0.875,0.4010697567019614
0.88,0.4028154952390386
0.885,0.40351955607418377
0.89,0.4039172165827736
0.895,0.4048927218731292
0.9,0.40650228456912296
0.905,0.4077948649457918
0.91,0.40772096445258044
0.915,0.40609928290584
0.92,0.40382238872829446
0.925,0.4022253488782599
0.93,0.40217808031441715
0.935,0.4035905645248952
0.94,0.405424382447962
0.945,0.40618637906147714
0.95,0.4049442950575243
0.955,0.40211026793315696
0.96,0.39914434321558057
0.965,0.39744531620753826
0.97,0.3972816375963929
0.975,0.39762088965936193
0.98,0.3971623251171054
0.985,0.3954783426872416
0.99,0.39311632555765086
0.995,0.39101878388391653
1.0,0.38987024529104325
1.005,0.3895810084776226
1.01,0.389500986528337
1.015,0.38933414093278423
1.02,0.3895769962594984
1.025,0.3909247127879368
1.03,0.3933422494781147
1.035,0.3957005288339078
1.04,0.396159959006218
1.045,0.3929265415506457
1.05,0.3859183128963939
1.055,0.3795851051096867
1.06,0.38339609253391027
1.065,0.4064235508222706
1.07,0.4492944146436027
1.075,0.5003927110129326
1.08,0.5397022689256459
1.085,0.5494168718816184
1.09,0.5252930592232687
1.095,0.47917206912199456
1.1,0.4305004602196466
1.105,0.395340635268779
1.11,0.3800480317279221
1.115,0.38039756639979777
1.12,0.38606751934293243
1.125,0.38849844755896745
1.13,0.3859372857535349
1.135,0.3819054131925573
1.14,0.38005953797941
1.145,0.38074667174696813
1.15,0.38180871318946125
1.155,0.38162267292862434
1.16,0.3803853400181828
1.165,0.37901784018958284
1.17,0.3782178729345107
1.175,0.3784315132999116
1.18,0.3797502712719059
1.185,0.38183581271880546
1.19,0.38422727032978304
1.195,0.3865302721293417
1.2,0.3883652827483463
1.205,0.3894541427392747
1.21,0.3897995701869197
1.215,0.38969271885299955
1.22,0.38954467896893064
1.225,0.38970309722778274
1.23,0.39034693542396975
1.235,0.39143064926648075
1.24,0.39271286753092743
1.245,0.39392227813706154
1.25,0.39488750860872973
1.255,0.3955034077375423
1.26,0.39570739744773364
1.265,0.3955683218250268
1.27,0.39534235743087204
1.275,0.395378413982242
1.28,0.39592365457802037
1.285,0.3970016648462801
1.29,0.3984674020044888
1.295,0.40013790602385085
1.3,0.4018943629108624
1.305,0.4037206971175256
1.31,0.4056039305098951
1.315,0.4073857479082304
1.32,0.40879276966005507
1.325,0.40959096174423093
1.33,0.4096645215883889
1.335,0.4090442840688493
1.34,0.4079247694157631
1.345,0.4065638118457112
1.35,0.40505762509753523
1.355,0.40319012615423677
1.36,0.400603953669602
1.365,0.3972420802078094
1.37,0.3935845799608012
1.375,0.39037615967911654
1.38,0.38815679823439464
1.385,0.387023700916877
1.39,0.38669289109160154
1.395,0.3867285091272652
1.4,0.38679740094664444
1.405,0.38682963054279534
1.41,0.3870064572025892
1.415,0.3875550502578706
1.42,0.388477969742514
1.425,0.38944857299754737
1.43,0.3899944416337393
1.435,0.3898922343894691
1.44,0.3894203535142279
1.445,0.3890490937308124
1.45,0.3888249905773614
1.455,0.38829525376634755
1.46,0.38712818626996504
1.465,0.38563220921201957
1.47,0.38462102961716077
1.475,0.3848595765090637
1.48,0.3865566970945337
1.485,0.389174620402638
1.49,0.3916536947704035
1.495,0.39302022997161845
1.5,0.3930362311536961
1.505,0.39231714720579985
1.51,0.39177708064232203
1.515,0.391911527878316
1.52,0.39245432990235735
1.525,0.3926591546290193
1.53,0.3920580941169343
1.535,0.39091180566227884
1.54,0.38979010429975264
1.545,0.3889595917435679
1.55,0.38840420404800285
1.555,0.38814671862739686
1.56,0.38825937950909045
1.565,0.3887081534013118
1.57,0.38937856023593437
1.575,0.390184333456995
1.58,0.3910251855481038
1.585,0.3917346887175825
1.59,0.3922520331056607
1.595,0.3927236712196737
1.6,0.3932387012998352
1.605,0.39365879456374175
1.61,0.39384486875964164
1.615,0.3937623440753545
1.62,0.39333879331052635
1.625,0.3925757024471132
1.63,0.39176700899698086
1.635,0.39132814875804467
1.64,0.3915063519027881
1.645,0.3924056597809462
1.65,0.3941024399302881
1.655,0.39654036021645944
1.66,0.3993873720500399
1.665,0.4021726405256354
1.67,0.404584704878801
1.675,0.40651868063644886
1.68,0.4078775250677262
1.685,0.4084975640126278
1.69,0.40821137222898757
1.695,0.4068824790125808
1.7,0.4045545607377332
1.705,0.401665607500072
1.71,0.3989093262074493
1.715,0.3967924520526694
1.72,0.39544206675827215
1.725,0.39476717522160604
1.73,0.39454536703047377
1.735,0.3943377941164639
1.74,0.39362581128102125
1.745,0.3922583082342391
1.75,0.39068799960969375
1.755,0.3895912967402835
1.76,0.3892240983132603
1.765,0.3892807566066277
1.77,0.3894483764093224
1.775,0.3898831277892765
1.78,0.3909629831544053
1.785,0.39276636719159114
1.79,0.3948230754746649
1.795,0.395958849617945
1.8,0.39448413002247523
1.805,0.3896068768720263
1.81,0.38372340664618715
1.815,0.38342832639552427
1.82,0.3970180798196447
1.825,0.42863563676103517
1.83,0.47291450949680935
1.835,0.5151968770632781
1.84,0.5384524397222437
1.845,0.532593409070747
1.85,0.500125796673478
1.855,0.4545733576718114
1.86,0.4128602582617308
1.865,0.3867414433379154
1.87,0.37827371626259265
1.875,0.38109081593956734
1.88,0.38598022537988363
1.885,0.3869622115256183
1.89,0.383826767401761
1.895,0.3800425946556557
1.9,0.3786665829143418
1.905,0.37994611622237956
1.91,0.3821572879891114
1.915,0.38384545662102304
1.92,0.38474059893606116
1.925,0.38519020388356945
1.93,0.3856223308146714
1.935,0.3863615648247928
1.94,0.38743442487574475
1.945,0.38856571595388545
1.95,0.3894059821812537
1.955,0.3897515584053447
1.96,0.3896991256412419
1.965,0.38957219359093215
1.97,0.3896234589707678
1.975,0.3898696057087885
1.98,0.39010990175788873
1.985,0.3900571084835234
1.99,0.38963686937485087
1.995,0.3891055661222938
2.0,0.3888149208083158
2.005,0.3891222061429223
2.01,0.3904317107304533
2.015,0.39289516848198136
2.02,0.3961065501442712
2.025,0.39929725808392635
2.03,0.40176129355492224
2.035,0.4031147946625641
2.04,0.40334702857710414
2.045,0.40280059713436484
2.05,0.40212388539531163
2.055,0.4019540512470967
2.06,0.40248333395672603
2.065,0.40352781657304154
2.07,0.4048431944706458
2.075,0.4060716587688244
2.08,0.40682200245207006
2.085,0.4071045767685299
2.09,0.4072039694091031
2.095,0.40706911804067375
2.1,0.4063076392073451
2.105,0.4047139049159094
2.11,0.40250742185804605
2.115,0.4001007776473844
2.12,0.39774276382775353
2.125,0.3955126489419359
2.13,0.3936150039609317
2.135,0.3922886574508589
2.14,0.39143877357457324
2.145,0.3907930357704142
2.15,0.3903066489274125
2.155,0.39005426280302
2.16,0.3898832975946915
2.165,0.38943581120878623
2.17,0.3885417588812598
2.175,0.387539589474404
2.18,0.3870318851547318
2.185,0.38727294256322353
2.19,0.3879909010306015
2.195,0.3887818949384138
2.2,0.389468791603758
2.205,0.3900641740497019
2.21,0.39049214733916576
2.215,0.39055126465352036
2.22,0.3902616221515582
2.225,0.38994720064187155
2.23,0.38985666697629645
2.235,0.390058594334127
2.24,0.39064248587792894
2.245,0.3915932299310556
2.25,0.3925749883891668
2.255,0.3931282965492013
2.26,0.3930431154733422
2.265,0.39252201140258114
2.27,0.39198686701826724
2.275,0.39168624382277395
2.28,0.39157909576505384
2.285,0.3915328274968643
2.29,0.39143988255227496
2.295,0.3912597145327784
2.3,0.3910726528663638
2.305,0.391034878256412
2.31,0.39136650493609393
2.315,0.3922973021194862
2.32,0.39372230819119663
2.325,0.3950407246412546
2.33,0.3955796198232731
2.335,0.39508165543419954
2.34,0.393847578753854
2.345,0.3925661758872007
2.35,0.39188273833082615
2.355,0.39209578764800623
2.36,0.3932151344210999
2.365,0.39499170884628415
2.37,0.3969223772420525
2.375,0.3985397911059608
2.38,0.39969660166479254
2.385,0.4005864509240884
2.39,0.4015753559180503
2.395,0.40284908749689635
2.4,0.4042544587400514
2.405,0.40557204904250893
2.41,0.4066366025078294
2.415,0.4072239146848442
2.42,0.4071989475764725
2.425,0.4066101225122138
2.43,0.40550120277679924
2.435,0.40391545225748493
2.44,0.40198699131232923
2.445,0.3998906668441199
2.45,0.39792281098779864
2.455,0.3964872089179299
2.46,0.3958357276503326
2.465,0.395988790957818
2.47,0.3966572159033613
2.475,0.39717576824649264
2.48,0.39706233418685666
2.485,0.3964326713962863
2.49,0.3954400608905393
2.495,0.3939524390887665
2.5,0.39203488717752666
2.505,0.39024711300569587
2.51,0.3895791891115894
2.515,0.39093682972264215
2.52,0.39405367020728965
2.525,0.39723869864297207
2.53,0.39832131265159904
2.535,0.3956068070741807
2.54,0.3896624630655064
2.545,0.3857273856275311
2.55,0.3926640078631608
2.555,0.41743537136932957
2.56,0.45933943826304363
2.565,0.5073726361140188
2.57,0.543100796133703
2.575,0.5501805126624696
2.58,0.5246126464857576
2.585,0.4770833955623751
2.59,0.42653319956644353
2.595,0.39021539408027944
2.6,0.37551384185036807
2.605,0.3779740834354136
2.61,0.3864467431408759
2.615,0.3910096996129024
2.62,0.3885935510265665
2.625,0.3831448775942104
2.63,0.3801979961732702
2.635,0.38128809118957185
2.64,0.38406590983064975
2.645,0.38616971751362467
2.65,0.38715850598991447
2.655,0.38761445123177546
2.66,0.38798096738058035
2.665,0.38830203795309776
2.67,0.3884393322040466
2.675,0.3882571593815713
2.68,0.3878153172771417
2.685,0.3876333355575576
2.69,0.38841517123323516
2.695,0.39022821460708257
2.7,0.3923397637833238
2.705,0.3939704378151295
2.71,0.39489212966167425
2.715,0.3954459622269223
2.72,0.3962186416240572
2.725,0.3974827059443542
2.73,0.398874806791708
2.735,0.39976732261996495
2.74,0.3998675194385362
2.745,0.39938612588242944
2.75,0.3988163413429297
2.755,0.39868713156959695
2.76,0.39937576502729843
2.765,0.40084925005813205
2.77,0.4025361816451009
2.775,0.4037332125074666
2.78,0.4042179223278302
2.785,0.4043028312751559
2.79,0.4044350899447871
2.795,0.40498636145585815
2.8,0.40621941960263447
2.805,0.4080962357833018
2.81,0.41009544077057436
2.815,0.411416624132983
2.82,0.41152453410038325
2.825,0.41054085687208247
2.83,0.4091000458499382
2.835,0.4078434661407773
2.84,0.4069941245052863
2.845,0.4062605409459746
2.85,0.40510936363926936
2.855,0.4032028177978489
2.86,0.4005889489300826
2.865,0.39754519371336877
2.87,0.3944241035297826
2.875,0.39165983826658657
2.88,0.38970541355017674
2.885,0.3888271453532269
2.89,0.38897969493992446
2.895,0.38985073941937753
2.9,0.390960938297886
2.905,0.3918036162008074
2.91,0.39206725185257607
2.915,0.3918263523797864
2.92,0.39151936378651003
2.925,0.39165050124647127
2.93,0.39239015218938694
2.935,0.3934616173583007
2.94,0.3944500586239503
2.945,0.39513577167732294
2.95,0.39549992935175265
2.955,0.39552931171731776
2.96,0.3950881846303957
2.965,0.3940320265875263
2.97,0.3925465427615269
2.975,0.39131580576505165
2.98,0.3911666486705008
2.985,0.39245177056764513
2.99,0.3947419495325806
2.995,0.3971077597261699
3.0,0.3987455065071298
3.005,0.3993590551662109
3.01,0.3990741396764788
3.015,0.39822934370328333
3.02,0.3971978646952069
3.025,0.39616521480003747
3.03,0.39513017419670166
3.035,0.3942222801078289
3.04,0.39380783272355463
3.045,0.39410725882085457
3.05,0.3947988181201571
3.055,0.3951750737539018
3.06,0.3947989604232303
3.065,0.39396103179117736
3.07,0.39344644257868494
3.075,0.3939531941838809
3.08,0.39564552633506617
3.085,0.3979763622982922
3.09,0.39995724811704964
3.095,0.4008132226713
3.1,0.40043134611044057
3.105,0.3992810411967069
3.11,0.3980164896039991
3.115,0.3970566429139147
3.12,0.3964793872859515
3.125,0.3962831086822642
3.13,0.39661794335682643
3.135,0.39781324401936874
3.14,0.4001913018312936
3.145,0.4035852993137376
3.15,0.40714652582746286
3.155,0.40998229075040976
3.16,0.4117502786652519
3.165,0.41243978866802006
3.17,0.41207603395239495
3.175,0.41084540648004003
3.18,0.40909471089397537
3.185,0.4070339548324343
3.19,0.40461336965203987
3.195,0.4018457517899313
3.2,0.3991962203658088
3.205,0.3973107231642
3.21,0.39629641637443686
3.215,0.39566214760078566
3.22,0.3949003531993057
3.225,0.39379224039302485
3.23,0.39249021121099353
3.235,0.39157855454987206
3.24,0.3915895562204298
3.245,0.39232507530057076
3.25,0.3931026015025
3.255,0.3936877956993452
3.26,0.3945193084033476
3.265,0.39588650236310685
3.27,0.3973336345994491
3.275,0.39799545971216377
3.28,0.396784388682809
3.285,0.39244401898977893
3.29,0.3855336915914075
3.295,0.3813892846191512
3.3,0.3892333576815427
3.305,0.4160031944383096
3.31,0.45954363326929926
3.315,0.5067634421594006
3.32,0.5391709599814803
3.325,0.5430189481813767
3.33,0.5169327140545924
3.335,0.47205321743639417
3.34,0.4258062264411927
3.345,0.39310923596422687
3.35,0.3794268824170283
3.355,0.3799705556558177
3.36,0.38509709989574986
3.365,0.3872085477850821
3.37,0.38463898198316426
3.375,0.38061229754699677
3.38,0.37866335198798606
3.385,0.3793011434405206
3.39,0.3808503436318479
3.395,0.38187384160111887
3.4,0.38203699477151726
3.405,0.38169478264379997
3.41,0.38136378873948845
3.415,0.38143083725150734
3.42,0.38212116122249506
3.425,0.3833816514250791
3.43,0.3847478240871969
3.435,0.3857327089163191
3.44,0.38630532352202085
3.445,0.3867650958887192
3.45,0.3874071739428955
3.455,0.3883713636805483
3.46,0.38953066188601365
3.465,0.39054567341334534
3.47,0.39112832553640176
3.475,0.3912386872063321
3.48,0.3911560592702751
3.485,0.39134816895672897
3.49,0.39209667916159807
3.495,0.39331312506835436
3.5,0.3947456141625535
3.505,0.39620991674624334
3.51,0.39766772378153614
3.515,0.39916002720371385
3.52,0.4006081744175527
3.525,0.4017924399485639
3.53,0.402611359042093
3.535,0.4032039709429906
3.54,0.40377163232921376
3.545,0.4043513664357484
3.55,0.40477316062203866
3.555,0.4049197633433111
3.56,0.40498589371960897
3.565,0.4052498026502721
3.57,0.4056640634994389
3.575,0.40590037936873924
3.58,0.40564992875228806
3.585,0.4047243533242084
3.59,0.4030551388936538
3.595,0.40073463865575537
3.6,0.39799287343839024
3.605,0.3950884997266484
3.61,0.39224764975216053
3.615,0.3897605283008398
3.62,0.3880478495662403
3.625,0.38737495878086525
3.63,0.3874638921766058
3.635,0.38757874604276943
3.64,0.387011971431832
3.645,0.38552426476839535
3.65,0.3835805888573618
3.655,0.3821720335364594
3.66,0.3820835545473414
3.665,0.3832494774462309
3.67,0.38495096980187116
3.675,0.3865382345535993
3.68,0.38779410958698635
3.685,0.38875469046514355
3.69,0.389477432519751
3.695,0.3899980495646002
3.7,0.39030050264100596
3.705,0.39029229097874296
3.71,0.3899402129337909
3.715,0.3893987008016263
3.72,0.3888815373539361
3.725,0.3884674204979987
3.73,0.3881597311940751
3.735,0.3880894132074991
3.74,0.3884818846826566
3.745,0.38935679413797686
3.75,0.3904007195239298
3.755,0.3912185265710007
3.76,0.3915559530876325
3.765,0.3912601481232447
3.77,0.3903187003669878
3.775,0.3890431451750523
3.78,0.387994767110478
3.785,0.38764147437026886
3.79,0.38812798611118343
3.795,0.3892665497255057
3.8,0.39064809044672605
3.805,0.3918361044512635
3.81,0.39255527252376266
3.815,0.3927705754952384
3.82,0.3926407366161602
3.825,0.3923688752149946
3.83,0.39206050939850434
3.835,0.39172674747999475
3.84,0.39138508698866514
3.845,0.3911210969111254
3.85,0.3910764080610158
3.855,0.3913681007237092
3.86,0.3919926820171953
3.865,0.39284762868481277
3.87,0.39386131578157235
3.875,0.3950401758236192
3.88,0.39638185256564745
3.885,0.3978371451323667
3.89,0.39942357498242104
3.895,0.40128505897980865
3.9,0.40345306559260063
3.905,0.40553024750519506
3.91,0.40681410032758925
3.915,0.40681903132111735
3.92,0.40555816678413514
3.925,0.4033782142121633
3.93,0.40077399337523956
3.935,0.39832326906781135
3.94,0.39647695930971044
3.945,0.39528391832992826
3.95,0.3944216721392359
3.955,0.3935478627386148
3.96,0.3926235824692233
3.965,0.3919162603240297
3.97,0.3916945052499186
3.975,0.39194537292840353
3.98,0.3923965372374437
3.985,0.39270994213265326
3.99,0.3925931102528076
3.995,0.391879744432237
4.0,0.39072587881377974
4.005,0.3897780808196299
4.01,0.3899503555288986
4.015,0.3916977891429645
4.02,0.39430560055498176
4.025,0.39592932521351365
4.03,0.3945431060614843
4.035,0.3895171575629928
4.04,0.3834681275737919
4.045,0.3830678128745325
4.05,0.3965911351568647
4.055,0.4281436988089929
4.06,0.47257113282194463
4.065,0.5156856904282479
4.07,0.540499047396613
4.075,0.5360350783358456
4.08,0.5036901532925997
4.085,0.4568688764016047
4.09,0.4134953791373075
4.095,0.3864022269859142
4.1,0.37797703895262935
4.105,0.3814506688478317
4.11,0.38684577059390113
4.115,0.38761567282779164
4.12,0.3836981899863922
4.125,0.37915212502556417
4.13,0.37725071606751254
4.135,0.3778799874598709
4.14,0.37893836393962366
4.145,0.3791596429199698
4.15,0.3790519390226645
4.155,0.3796166144773497
4.16,0.3811007005426358
4.165,0.38308040404975524
4.17,0.3850124577360167
4.175,0.3864579722794524
4.18,0.3871999873615818
4.185,0.38737750069876037
4.19,0.3874617251915132
4.195,0.3880061265082415
4.2,0.3892197392584545
4.205,0.39074044392675444
4.21,0.3919441823075455
4.215,0.39240273148708815
4.22,0.39205802626429737
4.225,0.3912485502864438
4.23,0.3905953077856955
4.235,0.39063126336890214
4.24,0.3914897932471367
4.245,0.3928862687383246
4.25,0.3942967166631837
4.255,0.3953260413877381
4.26,0.39603689910943146
4.265,0.39681196127315665
4.27,0.3979415696435408
4.275,0.3994395628059577
4.28,0.40110682705085365
4.285,0.4027051515040083
4.29,0.40417146174708796
4.295,0.40561076708006394
4.3,0.407024707077651
4.305,0.408182877253568
4.31,0.40881688899669716
4.315,0.40883667079651825
4.32,0.4083169740361498
4.325,0.4073416488229979
4.33,0.4059253768531569
4.335,0.4040633367875275
4.34,0.4017688230465907
4.345,0.39904201361042363
4.35,0.39589625152542507
4.355,0.39251631863062353
4.36,0.389384274105405
4.365,0.3871294495842837
4.37,0.38614559710028973
4.375,0.3863103374424184
4.38,0.3870219496823777
4.385,0.38752035477350094
4.39,0.38733061542238617
4.395,0.38651237356074347
4.4,0.3855130857196814
4.405,0.38484731241704395
4.41,0.38485902295284047
4.415,0.38557480009209427
4.42,0.3867048650108569
4.425,0.38784293639888007
4.43,0.38869218785578624
4.435,0.38915460725847434
4.44,0.3892692453197442
4.445,0.3891083386829488
4.45,0.38881107668970405
4.455,0.3886556530227917
4.46,0.3888980841206675
4.465,0.38952491435809317
4.47,0.39022517862701245
4.475,0.39056796447520903
4.48,0.3903143526606647
4.485,0.38967301009107536
4.49,0.3891392233518223
4.495,0.38908217915724014
4.5,0.3895724055774799
4.505,0.39043009018851993
4.51,0.39132346022134573
4.515,0.39193939837869674
4.52,0.39209068716508844
4.525,0.3917455416483198
4.53,0.3910967002687434
4.535,0.39043711086567395
4.54,0.38986654668785814
4.545,0.3893066725208405
4.55,0.3887273223696833
4.555,0.38819275099944056
4.56,0.38784644970887017
4.565,0.38787726515260895
4.57,0.3883599452099743
4.575,0.38917953565807695
4.58,0.3900529440728122
4.585,0.39055380838241976
4.59,0.3903755597895863
4.595,0.3896511644066433
4.6,0.3888916362484058
4.605,0.38874392997918666
4.61,0.3897104265132838
4.615,0.3917492163241576
4.62,0.39426152861831876
4.625,0.39661605682848583
4.63,0.3985183068223786
4.635,0.4000483796812965
4.64,0.4015442318891393
4.645,0.4032254663967264
4.65,0.40493078827768747
4.655,0.4062896260307967
4.66,0.4068935527915534
4.665,0.40641101524998224
4.67,0.40480376152547487
4.675,0.40228574563134445
4.68,0.3992135291997108
4.685,0.3962125840747459
4.69,0.39390866759398757
4.695,0.39237010071597644
4.7,0.3911953277218577
4.705,0.3899745527190611
4.71,0.38856328994045214
4.715,0.38727550444880177
4.72,0.3866710512022614
4.725,0.3870499017117396
4.73,0.38840191162530546
4.735,0.3903370311273373
4.74,0.3918244332582368
4.745,0.39197857375259343
4.75,0.3912781449018019
4.755,0.3912303267029281
4.76,0.3928275664945259
4.765,0.39540260258254345
4.77,0.3967388791495516
4.775,0.39453873100222697
4.78,0.3880493471373789
4.785,0.37942581475022125
4.79,0.37560208965887676
4.795,0.3871926651322637
4.8,0.42044629019508234
4.805,0.4688257373545092
4.81,0.5144199910840188
4.815,0.5379855658397354
4.82,0.529347854685609
4.825,0.49290140932716087
4.83,0.44510783326199727
4.835,0.4046664322987296
4.84,0.3826237390304305
4.845,0.37875002031324506
4.85,0.38434158631248416
4.855,0.3890457404938085
4.86,0.3876403177298279
4.865,0.3817701631528679
4.87,0.37614747922647734
4.875,0.3737431649488605
4.88,0.37414809454256814
4.885,0.3755923761181265
4.89,0.3773737646691293
4.895,0.3796124629447149
4.9,0.3818049423154748
4.905,0.38301697315599986
4.91,0.38297120206947305
4.915,0.3822073854674151
4.92,0.38152863464247005
4.925,0.38146147704836164
4.93,0.38206479298805884
4.935,0.38315467869058784
4.94,0.3844780107314656
4.945,0.3857692419409238
4.95,0.3869558214885444
4.955,0.38803818760052705
4.96,0.388676067742289
4.965,0.3884115885556177
4.97,0.3873166543255383
4.975,0.3861193619537631
4.98,0.38581403293469807
4.985,0.3870521942355856
4.99,0.3895943827449622
4.995,0.39244392105773596
5.0,0.39460649468292763
5.005,0.3957015335130691
5.01,0.39606635678577135
5.015,0.3963507105671508
5.02,0.39692202897236556
5.025,0.397739478386988
5.03,0.39863945701883496
5.035,0.3994806281534386
5.04,0.40022155797793557
5.045,0.40099023057777455
5.05,0.4018780174298412
5.055,0.4027425344185208
5.06,0.4033264102780234
5.065,0.4034094200516248
5.07,0.4028714137125258
5.075,0.40171735057536706
5.08,0.40000134540904997
5.085,0.3978422036610064
5.09,0.3955436685497589
5.095,0.3934582772439087
5.1,0.39174697109554546
5.105,0.3903859312497104
5.11,0.3892382449524883
5.115,0.3881271363482575
5.12,0.3870268190669433
5.125,0.3860894260605791
5.13,0.38542335406793665
5.135,0.3849626151413564
5.14,0.3845195189929869
5.145,0.38395601650464445
5.15,0.38336710059318696
5.155,0.3829913881553439
5.16,0.38297247977741483
5.165,0.3833672712630695
5.17,0.3841982832899023
5.175,0.38531099377952066
5.18,0.38636976853484883
5.185,0.38706327231361526
5.19,0.387217157019125
5.195,0.38685170781597267
5.2,0.3862825405389004
5.205,0.3860783806172796
5.21,0.38677511566465783
5.215,0.38846699900866827
5.22,0.3905640106392609
5.225,0.3920449049474472
5.23,0.39213333418502194
5.235,0.3908803850359272
5.24,0.3891802524116559
5.245,0.38814454697541906
5.25,0.3883054872417849
5.255,0.3893231003048235
5.26,0.3903462048123003
5.265,0.3906268906729829
5.27,0.38999983463220517
5.275,0.38900895340094843
5.28,0.38857020558168115
5.285,0.3892694034661128
5.29,0.39077354849181273
5.295,0.3920389970508883
5.3,0.3922764450334574
5.305,0.3915966053978138
5.31,0.39070648137308706
5.315,0.39029127412117914
5.32,0.39069041543939365
5.325,0.39178768363606875
5.33,0.39308150847774775
5.335,0.39400619484591276
5.34,0.39431102447874494
5.345,0.3942282912071504
5.35,0.3942998274034017
5.355,0.3950172254603374
5.36,0.3966089601721332
5.365,0.3989827698850199
5.37,0.40169125963560676
5.375,0.40410280631552414
5.38,0.4057676776990023
5.385,0.4066049396089573
5.39,0.40681900152749634
5.395,0.40665267141146555
5.4,0.40606559711909085
5.405,0.40472369494290666
5.41,0.4024731394712194
5.415,0.39972445295024467
5.42,0.39725423794662806
5.425,0.39564912723767526
5.43,0.3949387481368779
5.435,0.3947513539531227
5.44,0.39469002389009794
5.445,0.39441857766658367
5.45,0.3936819185050587
5.455,0.39258555008014323
5.46,0.3916045699219864
5.465,0.3910371291406397
5.47,0.3906619462348083
5.475,0.39014149329853465
5.48,0.38964681976305554
5.485,0.3898249074306859
5.49,0.3910159497666305
5.495,0.39269745450643107
5.5,0.3937282879052015
5.505,0.39275850874439394
5.51,0.38885871114417203
5.515,0.3833334885715631
5.52,0.38153022439304296
5.525,0.39147146638601205
5.53,0.41862460414472596
5.535,0.46028635507128685
5.54,0.5042296782399037
5.545,0.5336868806769973
5.55,0.5361911209423833
5.555,0.510593610090827
5.56,0.4676283050888106
5.565,0.4237949115967769
5.57,0.3926367092747135
5.575,0.37885053986066775
5.58,0.3782207669240417
5.585,0.3823156836108389
5.59,0.3843769258183951
5.595,0.3826930453176518
5.6,0.37967657124263465
5.605,0.3782324080850032
5.61,0.37904767170069414
5.615,0.38081751089952093
5.62,0.38215471627050124
5.625,0.38276594209535414
5.63,0.3831093959057051
5.635,0.38360214796193226
5.64,0.3843522557019597
5.645,0.3852697006619857
5.65,0.3861501427579437
5.655,0.3867308520512101
5.66,0.3868176882250532
5.665,0.38645548099706467
5.67,0.38600387735275804
5.675,0.3859803044218872
5.68,0.38675359575597934
5.685,0.3883030811790734
5.69,0.3901941586640774
5.695,0.3918645885015164
5.7,0.3930395977674741
5.705,0.39384152292333086
5.71,0.3945320468919666
5.715,0.39523409165235673
5.72,0.39585656998881097
5.725,0.39627668653592213
5.73,0.3966234949549568
5.735,0.39724574138905316
5.74,0.3983349100558187
5.745,0.39970939428131513
5.75,0.4009757768471098
5.755,0.40184190513650625
5.76,0.40236070727177486
5.765,0.40291274739086447
5.77,0.40390551675521796
5.775,0.4054790041229428
5.78,0.4074058812502893
5.785,0.4091435867903506
5.79,0.4100424305800785
5.795,0.40969044681703715
5.8,0.408211707693769
5.805,0.40624248981293887
5.81,0.4044731275810203
5.815,0.4031752897337451
5.82,0.4022210280510631
5.825,0.40134368047875607
5.83,0.4002141864683157
5.835,0.39856145211335153
5.84,0.39646647278372493
5.845,0.3943986194761678
5.85,0.3928520583918797
5.855,0.39196374098852105
5.86,0.3914629183694797
5.865,0.3909841824307595
5.87,0.3904210585301421
5.875,0.39001686903281274
5.88,0.3902092646218438
5.885,0.3912308284993022
5.89,0.39268971220683735
5.895,0.39381121409539055
5.9,0.39419375758796454
5.905,0.3939774709622359
5.91,0.3934143933173384
5.915,0.3927778408508144
5.92,0.3924638859628856
5.925,0.3927127859418016
5.93,0.3934314681030737
5.935,0.39449222321066013
5.94,0.395871059643257
5.945,0.3973197665511095
5.95,0.3982620381346765
5.955,0.39833658943285793
5.96,0.3978631077443877
5.965,0.3974750053603455
5.97,0.3974682254299205
5.975,0.3977564633858151
5.98,0.3981510348891745
5.985,0.39840463020043326
5.99,0.39830178399884086
5.995,0.39794954186954107
6.0,0.39778181671921425
6.005,0.3981513722665678
6.01,0.39894616949895306
6.015,0.3995844956441658
6.02,0.39942681995939744
6.025,0.39830816904683447
6.03,0.3967544507254947
6.035,0.39567998860876114
6.04,0.3957138693079812
6.045,0.39670187368979726
6.05,0.3979452576397167
6.055,0.3988832478265731
6.06,0.3994112805360124
6.065,0.39974513457102273
6.07,0.40025899619613364
6.075,0.40134472074588434
6.08,0.4031795233721018
6.085,0.40555626914542386
6.09,0.40799664185135875
6.095,0.41011819044438297
6.1,0.4118542497163329
6.105,0.41323551387904583
6.11,0.414106487887299
6.115,0.41420302128751174
6.12,0.4133752720533315
6.125,0.4116442533526655
6.13,0.40915504775794237
6.135,0.40616597545577965
6.14,0.4030962913921753
6.145,0.40049744406951787
6.15,0.39880757143248713
6.155,0.3980764122968152
6.16,0.3979159566938402
6.165,0.39768768912855174
6.17,0.39693489772807317
6.175,0.395829966463501
6.18,0.39502877372090583
6.185,0.3949503100825426
6.19,0.39534173061483063
6.195,0.3956096288916447
6.2,0.3955328674184051
6.205,0.39559814741635085
6.21,0.3964988003688301
6.215,0.39827883744110815
6.22,0.39994280586816383
6.225,0.39969618511152527
6.23,0.39605162478241523
6.235,0.3901442864797572
6.24,0.387673048947653
6.245,0.3974075431036612
6.25,0.4255213942026198
6.255,0.4692370585638987
6.26,0.51518195089169
6.265,0.5451139585084464
6.27,0.5458411326727137
6.275,0.5167254966430641
6.28,0.47006293884964934
6.285,0.42414816567904673
6.29,0.3933106050262158
6.295,0.3814780855146955
6.3,0.38285296108346206
6.305,0.3876716553715469
6.31,0.38877466058773136
6.315,0.3853247791320018
6.32,0.3812969107318178
6.325,0.3802929711133179
6.33,0.3821132107197301
6.335,0.3841104871835906
6.34,0.3845718429045158
6.345,0.38404052588999843
6.35,0.3839273971000457
6.355,0.38478729571665593
6.36,0.3861802057304629
6.365,0.38749938336959416
6.37,0.38837266087731387
6.375,0.3887082266871142
6.38,0.38884126936919744
6.385,0.38937109087447996
6.39,0.39060361645393504
6.395,0.3922507479854059
6.4,0.3936467482322818
6.405,0.39421971264744765
6.41,0.3939049300306495
6.415,0.3932151971559922
6.42,0.3929371592714874
6.425,0.3936818056452088
6.43,0.3955165285520153
6.435,0.3979226638728515
6.44,0.400115615300301
6.445,0.40143057638615565
6.45,0.40165049331412306
6.455,0.40121312472136106
6.46,0.4009188866891397
6.465,0.4012622912009239
6.47,0.4022004695127054
6.475,0.4034896584293527
6.48,0.404931986415167
6.485,0.40635694823026886
6.49,0.40762277661716495
6.495,0.40866842427388317
6.5,0.409533455776255
6.505,0.4103131399734864
6.51,0.4109858990917928
6.515,0.41124057338469044
6.52,0.41058402038483865
6.525,0.4087345959721652
6.53,0.4059371229807976
6.535,0.4028343145707703
6.54,0.4000019654624021
6.545,0.39767115743535064
6.55,0.3958259627985555
6.555,0.394325084544885
6.56,0.3929081868118646
6.565,0.3913270468497107
6.57,0.3895752203657348
6.575,0.3879180945808406
6.58,0.3866880683931424
6.585,0.38607676473186653
6.59,0.38609575317365186
6.595,0.38667932779562963
6.6,0.3877445360724417
6.605,0.38910484042470506
6.61,0.3904097311722353
6.615,0.3913004374671541
6.62,0.39165333006905
6.625,0.3916412897394864
6.63,0.3915750274718108
6.635,0.3916954628225623
6.64,0.39205403154287605
6.645,0.39253473764531155
6.65,0.39299714094170146
6.655,0.3933817076706716
6.66,0.393638761356657
6.665,0.39360760696375263
6.67,0.39305596055321357
6.675,0.3918415644511176
6.68,0.3900412473318119
6.685,0.3880377271900102
6.69,0.38654520582644686
6.695,0.3863819846139286
6.7,0.3879482881320754
6.705,0.39081289748449
6.71,0.3938660709095431
6.715,0.3959566730396726
6.72,0.39649766903106093
6.725,0.39567111935553223
6.73,0.3942231509560725
6.735,0.39301262919773067
6.74,0.39253498695001054
6.745,0.3926979342574992
6.75,0.39303982687871303
6.755,0.3932041158426471
6.76,0.39316225391078724
6.765,0.3929963021195684
6.77,0.3926413699958854
6.775,0.39192190924149456
6.78,0.39075745293229386
6.785,0.3893419867989233
6.79,0.3881757521957037
6.795,0.38783533680977766
6.8,0.388633846985379
6.805,0.3904795911673845
6.81,0.39296594638211174
6.815,0.39558466307548845
6.82,0.3979914498447752
6.825,0.4001329637161251
6.83,0.40214319490102857
6.835,0.404158331638938
6.84,0.40612192295089744
6.845,0.40769141673549913
6.85,0.40846383741450365
6.855,0.4082703896406643
6.86,0.4071047483289935
6.865,0.4049375950931615
6.87,0.4018298262751988
6.875,0.3981382279326348
6.88,0.394533249651788
6.885,0.39184157076703463
6.89,0.39070528984694164
6.895,0.3911559782801308
6.9,0.39241842657286347
6.905,0.3931863218903272
6.91,0.3923664937253736
6.915,0.3898533760528904
6.92,0.38668262888040156
6.925,0.3844354511637536
6.93,0.38424761526698514
6.935,0.3860015842921718
6.94,0.3885974805283705
6.945,0.3912012016072111
6.95,0.3937349869494139
6.955,0.3960939593607295
6.96,0.3976713075502826
6.965,0.39746544840574
6.97,0.39398921617922356
6.975,0.3864466294431427
6.98,0.37808440893568934
6.985,0.3778876737128903
6.99,0.3962445526663989
6.995,0.4362048645532657
7.0,0.48750599946609147
7.005,0.5298331336486731
7.01,0.5443594069917495
7.015,0.5248844748897208
7.02,0.48067001111318125
7.025,0.4305426038812562
7.03,0.3927484417483163
7.035,0.3760133405271114
7.04,0.37686649985765375
7.045,0.38454013761385525
7.05,0.389158562310427
7.055,0.38737256393764935
7.06,0.3822921098820911
7.065,0.37863361555211383
7.07,0.37795366022217153
7.075,0.37853029029677054
7.08,0.3786187896136785
7.085,0.3782921005551408
7.09,0.3784127175086728
7.095,0.37915757612667855
7.1,0.3799355776681005
7.105,0.3802306172114654
7.11,0.38012621861431495
7.115,0.3800671534534841
7.12,0.38038416824898114
7.125,0.38108255501268723
7.13,0.3818770849930052
7.135,0.3824197342538243
7.14,0.3826568851666598
7.145,0.38298602503743984
7.15,0.38401182257478433
7.155,0.3860927358254617
7.16,0.38901180307241157
7.165,0.39205735606520625
7.17,0.3944805746882249
7.175,0.3958911432951775
7.18,0.39631176287952574
7.185,0.39605084950267844
7.19,0.3955436548527575
7.195,0.39515665016083923
7.2,0.3950565770470434
7.205,0.39526789450941535
7.21,0.3958135151425154
7.215,0.3967171229925228
7.22,0.3978697688672332
7.225,0.3990159255630925
7.23,0.3999386224432414
7.235,0.4005869813258133
7.24,0.40101077012261127
7.245,0.4012781110725957
7.25,0.40147165200331714
7.255,0.4016621802359139
7.26,0.40183661882098864
7.265,0.40186875843359965
7.27,0.4015652752493906
7.275,0.4007382415199866
7.28,0.3992738919060944
7.285,0.3972213447857926
7.29,0.39484526806514036
7.295,0.39250894371522244
7.3,0.39046884371462814
7.305,0.388821620963723
7.31,0.387563939229949
7.315,0.3865770049742329
7.32,0.38565643405842703
7.325,0.38472311739516973
7.33,0.38394023785034775
7.335,0.38351136971431027
7.34,0.3834331747431778
7.345,0.3835137033564514
7.35,0.3835545826540315
7.355,0.3834759853582384
7.36,0.38334948076541536
7.365,0.3833484856513845
7.37,0.3836169653723973
7.375,0.3841808497735491
7.38,0.3850055900366561
7.385,0.3860806061358883
7.39,0.3873863655202306
7.395,0.3888044471471598
7.4,0.39011239818179266
7.405,0.3910948411456106
7.41,0.3916657092724746
7.415,0.3918845832439434
7.42,0.3918978609973181
7.425,0.3918855523053538
7.43,0.3919608924096253
7.435,0.3920318369051996
7.44,0.39183901420410344
7.445,0.39122449658311587
7.45,0.39034523550536254
7.455,0.38957621511437923
7.46,0.38918031016981725
7.465,0.3890862297916081
7.47,0.38901488265073847
7.475,0.3887411412837557
7.48,0.38817559673391866
7.485,0.38739279609989624
7.49,0.38672868379140035
7.495,0.386639758071935
7.5,0.38733572233686525
7.505,0.3887127663868393
7.51,0.39057112355082135
7.515,0.3925974376286188
7.52,0.39426314975522153
7.525,0.39513701241570587
7.53,0.3952718884509859
7.535,0.39503390502343266
7.54,0.3946459691514561
7.545,0.3940962816755446
7.55,0.3933587021899845
7.555,0.39251603392582235
7.56,0.39177245907239766
7.565,0.3914587916925533
7.57,0.39190194481314944
7.575,0.39319896655923703
7.58,0.3951950366281026
7.585,0.3976669572652337
7.59,0.40040025996987627
7.595,0.40310497327874
7.6,0.40539534276058037
7.605,0.40690222395283854
7.61,0.40739362438255367
7.615,0.40683372327758377
7.62,0.40539420452125796
7.625,0.40340719175675144
7.63,0.4012347202118951
7.635,0.3991327944578006
7.64,0.3972732910093313
7.645,0.39589968601935294
7.65,0.3953242727861348
7.655,0.3956522149081788
7.66,0.3965654351854836
7.665,0.39745305563306976
7.67,0.39772051831786076
7.675,0.3970480531954373
7.68,0.3956042424710779
7.685,0.3940688690222504
7.69,0.39316938082917285
7.695,0.3930247940456829
7.7,0.39313145613165185
7.705,0.3931152675057838
7.71,0.39325483090364033
7.715,0.39406202886103026
7.72,0.3954807844970758
7.725,0.39651587631113744
7.73,0.3954437472039421
7.735,0.3908927484777757
7.74,0.3841227106205091
7.745,0.3809058314276172
7.75,0.3899334496834744
7.755,0.417195891344287
7.76,0.46004542093686784
7.765,0.5057820943802842
7.77,0.5368583188747725
7.775,0.5402640418423376
7.78,0.5149890353476775
7.785,0.47228967121551213
7.79,0.42900854421404233
7.795,0.3988422789632981
7.8,0.38652357553598954
7.805,0.38745954632315277
7.81,0.3924728027248113
7.815,0.3942697816153922
7.82,0.3911778273710516
7.825,0.3861321824166887
7.83,0.38272558325927586
7.835,0.38206146455896883
7.84,0.38279089992789433
7.845,0.3833404231883122
7.85,0.3834207867235858
7.855,0.3835309214328885
7.86,0.38386912140189156
7.865,0.3842290190636421
7.87,0.38457285192731766
7.875,0.38520210979939723
7.88,0.386446198698894
7.885,0.3884247233624316
7.89,0.3909821305628993
7.895,0.3936857622132103
7.9,0.3960003333626522
7.905,0.3975547799774057
7.91,0.3982390913371734
7.915,0.3981832348377258
7.92,0.3977420621864788
7.925,0.39736837908148465
7.93,0.3973691034937728
7.935,0.3977594744461864
7.94,0.39832193726211457
7.945,0.3987781379769933
7.95,0.3989242907935448
7.955,0.398716922691278
7.96,0.3983840360922604
7.965,0.39836371655736924
7.97,0.39889400562416255
7.975,0.39974604077710435
7.98,0.4005705145985751
7.985,0.40135705576594954
7.99,0.40237869448756824
7.995,0.40385528241492163
8.0,0.4057874276996717
8.005,0.4079510936309216
8.01,0.4099289966871421
8.015,0.41125597947263964
8.02,0.41171399759049115
8.025,0.4114665304074998
8.03,0.410735095402844
8.035,0.40943054973265874
8.04,0.4073279192923374
8.045,0.40445596422824587
8.05,0.40111133082462963
8.055,0.39768706072011134
8.06,0.3945705743343102
8.065,0.39198336095572384
8.07,0.38994361195670507
8.075,0.38847018292120744
8.08,0.3875777950135724
8.085,0.387058700224991
8.09,0.3866198773976194
8.095,0.3862278350815558
8.1,0.3860555763957618
8.105,0.3861902685527025
8.11,0.3866010890788845
8.115,0.3872764215372005
8.12,0.3881856520209055
8.125,0.38912371731370454
8.13,0.3897721747169675
8.135,0.389991954781439
8.14,0.3899453181051456
8.145,0.38990057575755355
8.15,0.3900624022288782
8.155,0.3905707346793822
8.16,0.39142955778400573
8.165,0.3923517922463687
8.17,0.39281192173621604
8.175,0.3924144649026439
8.18,0.39129000754274545
8.185,0.390073499750595
8.19,0.389392374260671
8.195,0.389363292109083
8.2,0.38958019964335
8.205,0.38954978672865176
8.21,0.3891790124262356
8.215,0.3888848428600673
8.22,0.38918466730080997
8.225,0.39015852140739765
8.23,0.3913042295684112
8.235,0.3918709285117477
8.24,0.39139616728871196
8.245,0.3900761972693829
8.25,0.38865994706243545
8.255,0.3879180688702898
8.26,0.38811753311855396
8.265,0.3888919638984321
8.27,0.3895829701329384
8.275,0.3897766109339105
8.28,0.38957733946399165
8.285,0.3894319142176273
8.29,0.38973245696762604
8.295,0.3904986660529873
8.3,0.39134238047301123
8.305,0.3917893251868381
8.31,0.39171841639474236
8.315,0.39151310391801303
8.32,0.39179490517995136
8.325,0.39297016666237833
8.33,0.39496359529120917
8.335,0.3973646558405446
8.34,0.3997937531595925
8.345,0.4020765105941338
8.35,0.4041285434304102
8.355,0.40579374157227127
8.36,0.4068187714938061
8.365,0.4069513202898404
8.37,0.4060696600730488
8.375,0.4042608819781586
8.38,0.40182434750801743
8.385,0.3992022789116013
8.39,0.39682299549732
8.395,0.39492182360831507
8.4,0.3935087959918255
8.405,0.39251965094328667
8.41,0.39192818437283733
8.415,0.391656519753867
8.42,0.3914545522888558
8.425,0.39098371682960426
8.43,0.3900722277770025
8.435,0.38891957034299085
8.44,0.3880119332543009
8.445,0.38774445493841936
8.45,0.3882107075279272
8.455,0.38946359459267116
8.46,0.39167926511517975
8.465,0.3947220277870184
8.47,0.3977183456581977
8.475,0.3992339702706562
8.48,0.3977030996130729
8.485,0.3921800503186072
8.49,0.3842073752761524
8.495,0.3798026215222463
8.5,0.38822770683819297
8.505,0.41605823497113126
8.51,0.4603611855590889
8.515,0.5071204475972384
8.52,0.5372984640959747
8.525,0.5371075779773091
8.53,0.5060761887347026
8.535,0.4575599357708707
8.54,0.41104821941344744
8.545,0.3814980523343144
8.55,0.3727210283506031
8.555,0.37796194776508235
8.56,0.38603383780498485
8.565,0.3889225792547726
8.57,0.3859222435055508
8.575,0.38144233123993543
8.58,0.3793008453697686
8.585,0.3796107312039151
8.59,0.38045687032440234
8.595,0.38078608375071765
8.6,0.38092615286331616
8.605,0.38136613401067876
8.61,0.38210931521788616
8.615,0.3829433929460195
8.62,0.3836672962000762
8.625,0.38412412718925515
8.63,0.3843700463301624
8.635,0.3847484513063598
8.64,0.3855796086584986
8.645,0.386769577548126
8.65,0.38782599072707735
8.655,0.3883219284510744
8.66,0.38832399674297824
8.665,0.3883296021821044
8.67,0.38884743383519754
8.675,0.3900592883456109
8.68,0.39172992232016335
8.685,0.39332839157097926
8.69,0.3943315235221409
8.695,0.39458937592808946
8.7,0.394511387602414
8.705,0.39481269315226925
8.71,0.39586117324891856
8.715,0.3972820470374049
8.72,0.3984003860803414
8.725,0.3990068928187699
8.73,0.3994696171177353
8.735,0.4001702694480133
8.74,0.4010709125009134
8.745,0.4018745911819506
8.75,0.40247348309706327
8.755,0.40309985445583557
8.76,0.40401941478123776
8.765,0.4051683582729107
8.77,0.40609846878329203
8.775,0.40620923292196437
8.78,0.40511674467922354
8.785,0.40294830359213996
8.79,0.40028976426079516
8.795,0.39781182436721985
8.8,0.39590882390780296
8.805,0.3945522835771643
8.81,0.3934023800068415
8.815,0.392164636320291
8.82,0.39088330718225867
8.825,0.38978891969145907
8.83,0.3889145864940619
8.835,0.38806398708716183
8.84,0.3871499915232445
8.845,0.3863600449220253
8.85,0.385928423485463
8.855,0.3858687180532733
8.86,0.3859867193929077
8.865,0.38608725073362304
8.87,0.386128689188411
8.875,0.3862300391841575
8.88,0.3865745992211062
8.885,0.3872496687574606
8.89,0.3880925467429061
8.895,0.38872202841436976
8.9,0.38884053496932575
8.905,0.3885716343883325
8.91,0.38847328766203
8.915,0.389123233848976
8.92,0.3905601844137807
8.925,0.39209047121010815
8.93,0.39276531938748277
8.935,0.3921899512383703
8.94,0.39088319747963424
8.945,0.3898231771123263
8.95,0.3896912183526398
8.955,0.3905344721818762
8.96,0.39190346361738726
8.965,0.3931111309108011
8.97,0.393571141488752
8.975,0.3932082122936236
8.98,0.3925197128038834
8.985,0.3921047111373039
8.99,0.3921661521311824
8.995,0.3924587698388496
9.0,0.3926119627194066
9.005,0.3924748596351815
9.01,0.3921682095390746
9.015,0.39188963692785406
9.02,0.3918178751828258
9.025,0.39213446924110984
9.03,0.3929340695022541
9.035,0.3941411769454261
9.04,0.3955734412605313
9.045,0.39700673730745334
9.05,0.3982754191074487
9.055,0.39942873843418697
9.06,0.4006321813928782
9.065,0.40191374162340743
9.07,0.4032557292158745
9.075,0.40483565510033676
9.08,0.40683932730474387
9.085,0.4090324955408381
9.09,0.41070188393074875
9.095,0.4110884812040628
9.1,0.40990728084482475
9.105,0.4074643814282611
9.11,0.4043394436649379
9.115,0.4011143679650199
9.12,0.3983646477886058
9.125,0.3965829594764353
9.13,0.3959149558703763
9.135,0.39606068795568283
9.14,0.3965038288219719
9.145,0.39677282563629673
9.15,0.3965272668791126
9.155,0.39566571522199373
9.16,0.3945166264774292
9.165,0.3936866996695525
9.17,0.3934456012338045
9.175,0.393429327966474
9.18,0.39326043835011815
9.185,0.3932835854387612
9.19,0.39423651264973275
9.195,0.39624875438949975
9.2,0.3984897580205969
9.205,0.3994409426617727
9.21,0.3972173407412364
9.215,0.39101123119309245
9.22,0.38400006445098694
9.225,0.38433827646143587
9.23,0.4010743827808764
9.235,0.4371101154878038
9.24,0.48458078126574505
9.245,0.5266852294085338
9.25,0.5460864129086541
9.255,0.5347700913082553
9.26,0.49821287803545217
9.265,0.45158216048787886
9.27,0.41161174580695964
9.275,0.3888399532100432
9.28,0.3837056857365709
9.285,0.38847362791541795
9.29,0.3935401139722185
9.295,0.3935547275426029
9.3,0.38926479577617557
9.305,0.38455156311327765
9.31,0.3821325730229696
9.315,0.3820218272979336
9.32,0.3829912148758708
9.325,0.3842145392263581
9.33,0.3855260920827251
9.335,0.3868722395657828
9.34,0.38789744621395006
9.345,0.38813769415783544
9.35,0.3875235256196081
9.355,0.38650592988875687
9.36,0.38578536014496634
9.365,0.3860369952056797
9.37,0.3876709577872663
9.375,0.39061871148597155
9.38,0.39426151804833454
9.385,0.3975808969628548
9.39,0.3996467729997066
9.395,0.40020019700550197
9.4,0.39974131748270353
9.405,0.3991002518242422
9.41,0.3989388940240348
9.415,0.39940753306297144
9.42,0.4001521560469286
9.425,0.40070843375740683
9.43,0.4008392380439206
9.435,0.4006238509606152
9.44,0.40049289120814174
9.445,0.4010547826186336
9.45,0.4026080779205077
9.455,0.4047936344811076
9.46,0.4067423648367045
9.465,0.4076230246794139
9.47,0.4072386127726011
9.475,0.4061879173311351
9.48,0.40546378436223085
9.485,0.40586800134810114
9.49,0.4075712376064696
9.495,0.41001313391407773
9.5,0.41226438660381737
9.505,0.41354738681533093
9.51,0.41347782229948354
9.515,0.41201242794844245
9.52,0.4093180438945603
9.525,0.40573061643347264
9.53,0.40181284481300616
9.535,0.39830276273120035
9.54,0.3958785971920672
9.545,0.3948436394433928
9.55,0.39480054227836753
9.555,0.39472351792006966
9.56,0.3937688815038052
9.565,0.3920533592753705
9.57,0.39049219230486065
9.575,0.39002080478165063
9.58,0.3908784610450302
9.585,0.3923163683982761
9.59,0.39313812593859027
9.595,0.3927663786148967
9.6,0.39167942943296025
9.605,0.39086061371667985
9.61,0.39101075925693457
9.615,0.39214973412182946
9.62,0.393711938246498
9.625,0.39493753120066366
9.63,0.3953201250390936
9.635,0.39496159344389875
9.64,0.3944679990033552
9.645,0.3943089647103237
9.65,0.3945042406598388
9.655,0.395021745384319
9.66,0.3959624272709236
9.665,0.3971921629964662
9.67,0.3981933383047031
9.675,0.39836015960584426
9.68,0.39738880763374584
9.685,0.39562180280921017
9.69,0.3940086358269949
9.695,0.3934072710544423
9.7,0.39385186896518315
9.705,0.39467484259706354
9.71,0.395347111386031
9.715,0.39591936233209335
9.72,0.39654609113444367
9.725,0.3970185794401478
9.73,0.397003816939953
9.735,0.3963671527656477
9.74,0.39523542544416446
9.745,0.3941109232510807
9.75,0.39371676140197703
9.755,0.3944360607423951
9.76,0.3960910435869413
9.765,0.3981583671979006
9.77,0.3999378372300012
9.775,0.40085027547545843
9.78,0.4008680720132475
9.785,0.4005416022005175
9.79,0.40062737740144067
9.795,0.4016461370816311
9.8,0.4035721112566984
9.805,0.4059509159335459
9.81,0.40826260077047255
9.815,0.4100332581703966
9.82,0.41089186913507464
9.825,0.4107628146286772
9.83,0.40983638114874477
9.835,0.4083691469868025
9.84,0.40654840139069454
9.845,0.4043507181651519
9.85,0.4016749969561852
9.855,0.39880120828781523
9.86,0.39643088936403953
9.865,0.3951714220449356
9.87,0.39510845991720606
9.875,0.39569112537019946
9.88,0.39596571735176167
9.885,0.3951732827779062
9.89,0.39329197643786684
9.895,0.391203862576529
9.9,0.39029810736635645
9.905,0.39140437895951885
9.91,0.394021530117183
9.915,0.3968228213269626
9.92,0.3986509952496385
9.925,0.3990618281010518
9.93,0.3984598536345648
9.935,0.3975309014430943
9.94,0.39615841887166886
9.945,0.39332554638207107
9.95,0.3886405883914057
9.955,0.38458694025336954
9.96,0.38766540483429673
9.965,0.4056570527569177
9.97,0.44105614202068094
9.975,0.4863210571382087
9.98,0.5258620067961883
9.985,0.5434046394545918
9.99,0.5304869272835523
9.995,0.49175093133966025
10.0,0.4429322741858981
10.005,0.402039327658677
10.01,0.38009880542658364
10.015,0.3771784914316578
10.02,0.3847055297863733
10.025,0.3920369269938687
10.03,0.393117925093346
10.035,0.3886427172063721
10.04,0.3829647185736814
10.045,0.37956406862760217
10.05,0.3790311392597338
10.055,0.3801122086193771
10.06,0.3816176573622131
10.065,0.3831784471850218
10.07,0.38479722726173804
10.075,0.38631534886352936
10.08,0.3874521371472272
10.085,0.38813137550381155
10.09,0.38855810728169216
10.095,0.38898833171100866
10.1,0.38952177681517797
10.105,0.3900887443631053
10.11,0.39057263465334807
10.115,0.39097118154852667
10.12,0.3914037649077145
10.125,0.3918194128793134
10.13,0.39176022988862175
10.135,0.39083154085881283
10.14,0.38960598480400516
10.145,0.3895055819921318
10.15,0.39131322162536497
10.155,0.3943400791633369
10.16,0.3974773531318371
10.165,0.400265022433076
10.17,0.4024296085718456
10.175,0.40330807066166474
10.18,0.40246066002820363
10.185,0.40042175749973463
10.19,0.3985374945995959
10.195,0.39827808855713337
10.2,0.4005206165782732
10.205,0.405043562184268
10.21,0.41066204681622037
10.215,0.4158412028446371
10.22,0.4190456587977695
10.225,0.4190471915866961
10.23,0.41583434068636443
10.235,0.4110858864832139
10.24,0.40694222654706824
10.245,0.40442331761392697
10.25,0.403365745976959
10.255,0.4030961401784693
10.26,0.40253187236442683
10.265,0.40040433395521435
10.27,0.3962842038859589
10.275,0.3913757669949656
10.28,0.38793132767683597
10.285,0.3875539268904585
10.29,0.389831367916652
10.295,0.3925702622568806
10.3,0.39347442706278213
10.305,0.39189612387867406
10.31,0.38912989374298806
10.315,0.3868707614106124
10.32,0.38566603507698866
10.325,0.3852969270798386
10.33,0.3859213479007445
10.335,0.3878451358493278
10.34,0.39058100781155886
10.345,0.39277572708948116
10.35,0.3929412508553601
10.355,0.3905224711425326
10.36,0.38677840523728313
10.365,0.38438177164786674
10.37,0.3856469212202653
10.375,0.3907363144432422
10.38,0.3971813550804321
10.385,0.40137468708037166
10.39,0.40123003033677934
10.395,0.3977393994509747
10.4,0.39407200734693343
10.405,0.3929705237301396
10.41,0.39441845605920944
10.415,0.3958309761381646
10.42,0.3948799204254556
10.425,0.39174910931356316
10.43,0.3884870676887007
10.435,0.3869155969103241
10.44,0.3872985436453028
10.445,0.3884031352998195
10.45,0.388731921259658
10.455,0.3879586074963411
10.46,0.3872928283484589
10.465,0.3884003697782054
10.47,0.39159412073730987
10.475,0.3949212724397122
10.48,0.3954689428817323
10.485,0.3918759191966245
10.49,0.385708806607028
10.495,0.38064502774361136
10.5,0.3799377727653533
10.505,0.38390776688083206
10.51,0.38980494097521573
10.515,0.3942146233858511
10.52,0.39554490401360504
10.525,0.3946658417928959
10.53,0.39381790762299007
10.535,0.3949782845696738
10.54,0.3987464078929906
10.545,0.40395751958968973
10.55,0.4081852560923383
10.555,0.409423580250735
10.56,0.40761288598045553
10.565,0.40431341060385384
10.57,0.401292997610866
10.575,0.39940971810242104
10.58,0.3980166873926871
10.585,0.3956028806062326
10.59,0.3915865046041237
10.595,0.3869732819951066
10.6,0.38316383241871677
10.605,0.3809074604806772
10.61,0.380267666740921
10.615,0.38077715797749795
10.62,0.3815368792763209
10.625,0.38177825911393837
10.63,0.3819004190909015
10.635,0.3834388054432022
10.64,0.3869108197928234
10.645,0.39012633048524364
10.65,0.3897610256193514
10.655,0.3844991660250128
10.66,0.3767048140134215
10.665,0.3712711267572409
10.67,0.37145967526014645
10.675,0.3753125467834283
10.68,0.37798767775372955
10.685,0.3783817839882122
10.69,0.3827695958667311
10.695,0.4016232039738732
10.7,0.44097045787155337
10.705,0.49407935149192644
10.71,0.5415907807179206
10.715,0.5616248364529476
10.72,0.5427171977440738
10.725,0.49191871158513195
10.73,0.43228301224934107
10.735,0.38845669146889106
10.74,0.37093418518680726
10.745,0.37270022730895486
10.75,0.37835723399676374
10.755,0.37609930436801886
10.76,0.36512991030748293
10.765,0.35421183906644527
10.77,0.3524615752822293
10.775,0.3614719049736175
10.78,0.3756090228429456
10.785,0.3874931119072295
10.79,0.3926885784701847
10.795,0.3911213074979057
10.8,0.3857273262213085
10.805,0.3802069160498296
10.81,0.3772143553419758
10.815,0.37731645690826626
10.82,0.3792948866574542
10.825,0.3815012668346544
10.83,0.38274598690274253
10.835,0.38254729931974624
10.84,0.38146667368186543
10.845,0.3809309587215997
10.85,0.38206718137776186
10.855,0.3846198709381888
10.86,0.38701330446559845
10.865,0.3874670157311305
10.87,0.38522786353513544
10.875,0.38108798272715577
10.88,0.37712927807403474
10.885,0.3756754991791731
10.89,0.377524017703148
10.895,0.3808648610892903
10.9,0.382424002284006
10.905,0.3802800218914591
10.91,0.3760839798822934
10.915,0.3743680439630112
10.92,0.37886966704174335
10.925,0.38927891298915046
10.93,0.40156340492606873
10.935,0.4108680022646843
10.94,0.414242273464617
10.945,0.4118241837869735
10.95,0.40604785205961824
10.955,0.3996144068514672
10.96,0.3942060665861919
10.965,0.3908114253224138
10.97,0.3906020454626982
10.975,0.39489924797687215
10.98,0.4037817953131822
10.985,0.41483546967682866
10.99,0.42393810917935815
10.995,0.4274798453364238
11.0,0.4241388696957089
11.005,0.41554229005422955
11.01,0.40543238541835214
11.015,0.39737768648631056
11.02,0.3928829710547497
11.025,0.3912669655420049
11.03,0.39054754113933704
11.035,0.38870352219512433
11.04,0.38508667604443153
11.045,0.38091987266199423
11.05,0.3784793580655771
11.055,0.3797853986391664
11.06,0.38533433798184547
11.065,0.3934039363016074
11.07,0.4007286631499386
11.075,0.40429484621218725
11.08,0.40311782228984405
11.085,0.39882726071145813
11.09,0.39421245852258585
11.095,0.3907440097046984
11.1,0.3877689202173644
11.105,0.384221603565619
11.11,0.38078983154262824
11.115,0.38027005110360995
11.12,0.3854369553382631
11.125,0.3960479516747359
11.13,0.4082538130004989
11.135,0.4174167998644457
11.14,0.4212324263260643
11.145,0.4202662449419581
11.15,0.41647724784534784
11.155,0.41151998566570586
11.16,0.40575024264392046
11.165,0.3985077837732355
11.17,0.3897424372738477
11.175,0.38149239614009106
11.18,0.37695526802057355
11.185,0.3772843095508014
11.19,0.3799350980677106
11.195,0.3813379335508276
11.2,0.38079749734609125
11.205,0.3807071022161283
11.21,0.38333680200534437
11.215,0.3883718968484568
11.22,0.39353644886259787
11.225,0.397103782240734
11.23,0.3994744923470721
11.235,0.40233321850273973
11.24,0.40677659626353996
11.245,0.4121530781835859
11.25,0.4157751444381354
11.255,0.41420232335707835
11.26,0.40653524155598025
11.265,0.39654061582842004
11.27,0.39030645841539807
11.275,0.39146932185225514
11.28,0.3984953371457222
11.285,0.40586523602084795
11.29,0.40825689115260544
11.295,0.40469185683095493
11.3,0.3988222589351055
11.305,0.39514208073739077
11.31,0.39546935850892107
11.315,0.3989824789793178
11.32,0.40406211213966253
11.325,0.4086592575978808
11.33,0.4098267060829755
11.335,0.40544089484421986
11.34,0.3969985578659045
11.345,0.3888742921478273
11.35,0.3841634598598242
11.355,0.3828097701284315
11.36,0.3841617614826447
11.365,0.3890881188848564
11.37,0.3978136197376933
11.375,0.4069432257458174
11.38,0.4108261333329228
11.385,0.4058987623165227
11.39,0.3931665770319273
11.395,0.3783199143842859
11.4,0.37109913247946225
11.405,0.3821633026628321
11.41,0.4165168644037389
11.415,0.4679727960443343
11.42,0.5197828042032935
11.425,0.5520264817694772
11.43,0.5519351557199393
11.435,0.5206069211090278
11.44,0.4711414158448349
11.445,0.420064304357893
11.45,0.37913170393847273
11.455,0.35253354938486536
11.46,0.33868415292347426
11.465,0.3330765918712131
11.47,0.33083046307491937
11.475,0.32934794514593757
11.48,0.3296192594948312
11.485,0.33440537734275816
11.49,0.34517886651891516
11.495,0.3608033625764896
11.5,0.3779873308978236
11.505,0.3924830909055582
11.51,0.40091839505169424
11.515,0.4024466002070606
11.52,0.3988350960726507
11.525,0.3931266790689909
11.53,0.3881290716335703
11.535,0.385300947006495
11.54,0.3841438433126735
11.545,0.3828881651320901
11.55,0.380648520898952
11.555,0.378899730949414
11.56,0.3803529343469547
11.565,0.38664530754521537
11.57,0.3972012436630072
11.575,0.40943128749065
11.58,0.41963929059289456
11.585,0.4246922660992222
11.59,0.42397449647833474
11.595,0.41986239599765435
11.6,0.4152679567507564
11.605,0.4099971623328882
11.61,0.4002992821050479
11.615,0.38288504995263356
11.62,0.35957790481426705
11.625,0.3386833934720384
11.63,0.3317861856988683
11.635,0.34673901779986194
11.64,0.38105053677026063
11.645,0.4214361967439634
11.65,0.45078590891591336
11.655,0.45810099289628525
11.66,0.44500924378798473
11.665,0.4242335947049039
11.67,0.4102480987732448
11.675,0.4078050736594064
11.68,0.40773720638860345
11.685,0.39759580344544015
11.69,0.37965549149437605
11.695,0.37302528208824304
11.7,0.3909648348277636
11.705,0.41905123737385286
11.71,0.4231574283118039
11.715,0.38058427196069694
11.72,0.302609989539581
11.725,0.2293122815791138
11.73,0.20414924180129457
11.735,0.24746963221630763
11.74,0.34342577356142734
11.745,0.44743237020785304
11.75,0.5125137879432341
11.755,0.5181010777544471
11.76,0.4794131346560446
11.765,0.43168736466286634
11.77,0.40309951697401963
11.775,0.3969330425184864
11.78,0.3976404034186541
11.785,0.3937133214582189
11.79,0.3895975619815658
11.795,0.39397532940797336
11.8,0.40519584172159506
11.805,0.41383487092925425
11.81,0.4141563746851676
11.815,0.4079933442514948
11.82,0.39988599287688004
11.825,0.39258037812775154
11.83,0.3874520588897896
11.835,0.3858617096328847
11.84,0.38757496986686923
11.845,0.389544065390482
11.85,0.38854100381515616
11.855,0.38440879010510753
11.86,0.3800015766614799
11.865,0.37859144163522623
11.87,0.3814896908396824
11.875,0.38778871019314415
11.88,0.3957339802712381
11.885,0.40345797743110745
11.89,0.40900538024423055
11.895,0.4110743738224265
11.9,0.4095084576197839
11.905,0.40472693666141757
11.91,0.3977268592008077
11.915,0.39065541056227504
11.92,0.3858586461956719
11.925,0.3836676223527742
11.93,0.38169056551018415
11.935,0.377160187583642
11.94,0.37036254930990203
11.945,0.3653667497576112
11.95,0.36722386135376084
11.955,0.37835065882422647
11.96,0.3961982335801862
11.965,0.41344138254892104
11.97,0.4220917289984611
11.975,0.41928196264695244
11.98,0.4090567557044541
11.985,0.3984773344157614
11.99,0.39221978729566565
11.995,0.3899965616877317
12.0,0.3878067881997817
12.005,0.38162077172715514
12.01,0.3711890556130999
12.015,0.3613572137547691
12.02,0.3590435119877499
12.025,0.3676227239931215
12.03,0.3839423374169336
12.035,0.4006431085248302
12.04,0.41088940352323383
12.045,0.41181561098686015
12.05,0.4055007055180315
12.055,0.3974556242827318
12.06,0.3935604637229289
12.065,0.3972280771597296
12.07,0.4076821698199369
12.075,0.4197218143274622
12.08,0.4259538988827232
12.085,0.42150052445134173
12.09,0.40877707555511894
12.095,0.3985937549050986
12.1,0.4050300333602978
12.105,0.43590844651417066
12.11,0.4854610340514788
12.115,0.5353639175013548
12.12,0.5641931083518235
12.125,0.5592431001838665
12.13,0.5232630142503425
12.135,0.4722072809563285
12.14,0.425829062467777
12.145,0.39726383400296345
12.15,0.3880121911628985
12.155,0.39063112499541935
12.16,0.3959012536706745
12.165,0.3987842189945328
12.17,0.39964666292894013
12.175,0.4012520791898784
12.18,0.40480198495154557
12.185,0.408521371869175
12.19,0.4097132227268385
12.195,0.407699220246411
12.2,0.40439256014726505
12.205,0.4023700050382452
12.21,0.40296187712048465
12.215,0.40576130622039797
12.22,0.4089644885206454
12.225,0.41036498778303704
12.23,0.4092773597821805
12.235,0.40788362608424583
12.24,0.40980508780328134
12.245,0.4167825417151746
12.25,0.4271909524200044
12.255,0.43790174388450376
12.26,0.4465848543125036
12.265,0.45173646354674024
12.27,0.4518958897482745
12.275,0.4464439487015599
12.28,0.4370887186188955
12.285,0.4277330382787757
12.29,0.42247209920661916
12.295,0.42328359923252845
12.3,0.4290084834372754
12.305,0.43618292511951606
12.31,0.44097930615230596
12.315,0.44111795135299103
12.32,0.4369812058942549
12.325,0.43131380008972237
12.33,0.4273830742905319
12.335,0.4266199727955179
12.34,0.42753883689048433
12.345,0.42721560394099983
12.35,0.4241708108344092
12.355,0.4193140968827281
12.36,0.4139692273963123
12.365,0.4083558274840303
12.37,0.40266211703447924
12.375,0.39805034785631077
12.38,0.39540873200396276
12.385,0.3941352281175554
12.39,0.39322509904405517
12.395,0.392676601437603
12.4,0.39260137825061353
12.405,0.3916376179923038
12.41,0.38775104499410523
12.415,0.3805596713716392
12.42,0.3720561409524311
12.425,0.36534462156215336
12.43,0.36299418967577995
12.435,0.3657132535214777
12.44,0.37188605278898057
12.445,0.3786329046230268
12.45,0.38366396145711573
12.455,0.38650004423962375
12.46,0.388328795217062
12.465,0.39048251945206247
12.47,0.3927910217938184
12.475,0.3937509837135792
12.48,0.3923701829971178
12.485,0.38938540410815153
12.49,0.3865890226942733
12.495,0.3852114587759198
12.5,0.38497877948230724
12.505,0.38466127558209495
12.51,0.38345469273605604
12.515,0.3816654050456307
12.52,0.3800320779140213
12.525,0.37864451415162204
12.53,0.3768748333614282
12.535,0.37447101547668965
12.54,0.3724513304028516
12.545,0.37263477521334315
12.55,0.3761979114934535
12.555,0.3825032245662284
12.56,0.3891383538796135
12.565,0.39333216135472543
12.57,0.3938081319027994
12.575,0.3915386525201095
12.58,0.3888270739359235
12.585,0.38762770347497255
12.59,0.38833566317624024
12.595,0.38965415691099337
12.6,0.38961411235414256
12.605,0.3872981615201892
12.61,0.38396145453348585
12.615,0.3822101045185649
12.62,0.38374353287368457
12.625,0.38792815863212277
12.63,0.3925770900782785
12.635,0.39590009092278344
12.64,0.3976580555767214
12.645,0.3987471970077838
12.65,0.40005299175645803
12.655,0.4017350809326731
12.66,0.40319192784800356
12.665,0.403382916050837
12.67,0.4014165622944692
12.675,0.3972764216087211
12.68,0.39211947649679
12.685,0.38767112216123756
12.69,0.38507997140029315
12.695,0.384298541760899
12.7,0.3845232556249872
12.705,0.3849999267414625
12.71,0.3853879000808192
12.715,0.38570286870041115
12.72,0.38611448494394845
12.725,0.3867309041399115
12.73,0.38743180878220523
12.735,0.3876972300564637
12.74,0.38673081502571577
12.745,0.38429915530473896
12.75,0.38152806621000335
12.755,0.38036033910713263
12.76,0.3818364270800342
12.765,0.3847260457277635
12.77,0.38602389190173747
12.775,0.38340596710838765
12.78,0.3776063080417516
12.785,0.37293003505450817
12.79,0.3762950353787858
12.795,0.394545430374685
12.8,0.4291629122939401
12.805,0.4719286611416401
12.81,0.5072023273091776
12.815,0.5202954445757293
12.82,0.5057072145367025
12.825,0.47006191038195205
12.83,0.42822960916936237
12.835,0.3950545331486723
12.84,0.37820069713859483
12.845,0.37614951147708675
12.85,0.38115940592114245
12.855,0.38475479038880767
12.86,0.38266178756137437
12.865,0.3762886639085669
12.87,0.3700909390009665
12.875,0.36723514060634815
12.88,0.36736488386806065
12.885,0.368248365064565
12.89,0.3686512398667159
12.895,0.36876065451266377
12.9,0.3687965664209509
12.905,0.36869389737484703
12.91,0.3687724609234769
12.915,0.3695623225920385
12.92,0.3709210211811919
12.925,0.37190750612028595
12.93,0.37175008943114546
12.935,0.3707063959154977
12.94,0.3697283642630712
12.945,0.36954011852890145
12.95,0.370374632773053
12.955,0.3722268047841303
12.96,0.37476135816711115
12.965,0.3770992276235267
12.97,0.37837008759986757
12.975,0.37876802160154494
12.98,0.3795417749705114
12.985,0.38151482503886563
12.99,0.3841465908540523
12.995,0.38641545323054655
13.0,0.3878620457362402
13.005,0.3883102548220691
13.01,0.3872909597049148
13.015,0.38445485637028753
13.02,0.38066465133399
13.025,0.37838220201395206
13.03,0.3802365902598226
13.035,0.38679184741359923
13.04,0.3960730819321618
13.045,0.4052344434509434
13.05,0.412069352273961
13.055,0.41515570169911764
13.06,0.41377256207916546
13.065,0.4084795022870397
13.07,0.4014660405916828
13.075,0.39551888725677975
13.08,0.3923017885542754
13.085,0.3917477043213469
13.09,0.3927792767391347
13.095,0.394040832148121
13.1,0.3941756853364601
13.105,0.3922296148310066
13.11,0.3883021960794868
13.115,0.38377209973018384
13.12,0.3804077876913387
13.125,0.3788658303011028
13.13,0.37830387260155746
13.135,0.3776664370825425
13.14,0.37686610811656346
13.145,0.376404283697503
13.15,0.3763163410799335
13.155,0.37595829950733345
13.16,0.37472259280713605
13.165,0.3727232981718976
13.17,0.37085023172391784
13.175,0.37026904335839705
13.18,0.37161929224835594
13.185,0.3744171351932312
13.19,0.3773483110099761
13.195,0.3792532035469927
13.2,0.3797716169143653
13.205,0.37925966669376615
13.21,0.3783398056354376
13.215,0.37729417461803466
13.22,0.3756462479608366
13.225,0.37264723126402777
13.23,0.3686415002915105
13.235,0.36580589564077703
13.24,0.36672104297200464
13.245,0.37172157065604533
13.25,0.3780784078036336
13.255,0.38216012125864307
13.26,0.38223231831985516
13.265,0.3794152138932316
13.27,0.376614254510561
13.275,0.37651264280069935
13.28,0.3798611980361789
13.285,0.3850284674969466
13.29,0.38906487025409425
13.295,0.38980852631909163
13.3,0.38775917592755216
13.305,0.38599104218167996
13.31,0.3875546819300077
13.315,0.39212608533122734
13.32,0.3951906110136304
13.325,0.3917381409251599
13.33,0.38164004145119945
13.335,0.37092940581378336
13.34,0.3675628358463139
13.345,0.37591837793694166
13.35,0.39373751970780296
13.355,0.41261911299915377
13.36,0.4224803880576906
13.365,0.4180645158852348
13.37,0.40278577786949166
13.375,0.38668609001825527
13.38,0.379456899429297
13.385,0.38331807210613034
13.39,0.39189842751838166
13.395,0.3964642181455664
13.4,0.3933016066310143
13.405,0.3855045033527844
13.41,0.3789483393088263
13.415,0.37712774229808377
13.42,0.3791331958827006
13.425,0.381560670170261
13.43,0.38186564355639424
13.435,0.380311179783749
13.44,0.3793662122475675
13.445,0.38077538155027707
13.45,0.3823022392916094
13.455,0.3779603097453411
13.46,0.36335054844520176
13.465,0.3421257480260936
13.47,0.3274052527924687
13.475,0.33568097625548166
13.48,0.3760358582060159
13.485,0.4412446474146803
13.49,0.508310775220187
13.495,0.5506025277941013
13.5,0.5534090248600673
13.505,0.520856697283927
13.51,0.47047959410839396
13.515,0.42205567739219085
13.52,0.3888665814702678
13.525,0.37440737500724924
13.53,0.3734097155954641
13.535,0.3758379964618477
13.54,0.37285298170028497
13.545,0.3615227252644264
13.55,0.3447251715910088
13.555,0.3275989535572463
13.56,0.3148707255297549
13.565,0.3100040083610179
13.57,0.3145395357450724
13.575,0.3276747432945643
13.58,0.3468904304313335
13.585,0.368978472557573
13.59,0.39041322542910983
13.595,0.40741457350768684
13.6,0.4170501918897573
13.605,0.41885647472015375
13.61,0.4145080135518799
13.615,0.4059898493828122
13.62,0.39540600773261736
13.625,0.38569443364789596
13.63,0.37927528183855047
13.635,0.3762699225545821
13.64,0.3751248977560143
13.645,0.37405172505368195
13.65,0.3716244194773511
13.655,0.36773595805536674
13.66,0.36451953895341005
13.665,0.36515556967625745
13.67,0.37126501134356654
13.675,0.3815407771999741
13.68,0.39232498046210795
13.685,0.39906175030649227
13.69,0.39832181380778325
13.695,0.3903608100563425
13.7,0.3799527485687807
13.705,0.37316192290742384
13.71,0.3726880552019691
13.715,0.3770218085032464
13.72,0.3836425668214649
13.725,0.3916510492082922
13.73,0.4013084166448042
13.735,0.41227436852213994
13.74,0.4230907791208182
13.745,0.43213810017790405
13.75,0.43838189746875345
13.755,0.4410637085021494
13.76,0.4394311898889436
13.765,0.433411610504762
13.77,0.4244494371926445
13.775,0.4153390756336387
13.78,0.4090654906817666
13.785,0.40764374627810607
13.79,0.4114482144689619
13.795,0.4187177880088691
13.8,0.42566617132886786
13.805,0.4281744488117887
13.81,0.4243416003584778
13.815,0.41582017765754414
13.82,0.4069273371321221
13.825,0.4021420137253802
13.83,0.4036351726813664
13.835,0.4105166892721899
13.84,0.41982411860909474
13.845,0.42794854521535497
13.85,0.4318096947604887
13.855,0.42971280088751457
13.86,0.42178891440052685
13.865,0.4100792629037226
13.87,0.3979706591559199
13.875,0.3887208303195349
13.88,0.3841671215898645
13.885,0.3844807900583754
13.89,0.3880593577623608
13.895,0.39159285623552936
13.9,0.3920206875692845
13.905,0.38951200052161883
13.91,0.38765614055058994
13.915,0.3899191658175244
13.92,0.39623774449182353
13.925,0.4031806613206656
13.93,0.4068118361383812
13.935,0.4053345017434536
13.94,0.3997967888397882
13.945,0.39288419539702724
13.95,0.3871401990122595
13.955,0.3841243150176284
13.96,0.384381392268508
13.965,0.3872377021463249
13.97,0.3908205221621368
13.975,0.39307005954332463
13.98,0.39300948002362013
13.985,0.3913532659310614
13.99,0.3904884787908715
13.995,0.39355708716845367
14.0,0.4021274684442815
14.005,0.41387579536783575
14.01,0.423360708918137
14.015,0.42616471367734016
14.02,0.42195508997614334
14.025,0.4133917244889694
14.03,0.40359352071315624
14.035,0.39490799259109227
14.04,0.38811839220999655
14.045,0.3825466299553079
14.05,0.3781888982185571
14.055,0.3767006337540471
14.06,0.3790800681258923
14.065,0.38402399246404684
14.07,0.3893456558385641
14.075,0.39338015084567607
14.08,0.39507649247459353
14.085,0.394613566946765
14.09,0.3939475467915882
14.095,0.3951846225667052
14.1,0.3980317204813202
14.105,0.39999005915710617
14.11,0.3996137747012932
14.115,0.39825577235836984
14.12,0.39784898856932577
14.125,0.3986658720720364
14.13,0.3998417610522692
14.135,0.40003167673227286
14.14,0.39776969717627975
14.145,0.3942519414897012
14.15,0.39595267747159496
14.155,0.4116304571846673
14.16,0.4451026458210104
14.165,0.49015167271801946
14.17,0.5314580445231685
14.175,0.5517196212272731
14.18,0.5416167676783603
14.185,0.5058981488442076
14.19,0.46052254832011824
14.195,0.42289429794346217
14.2,0.402565746157783
14.205,0.39837032930548455
14.21,0.40226124073953456
14.215,0.4058542882589197
14.22,0.4052394857972669
14.225,0.40155021149629666
14.23,0.39779597325365906
14.235,0.39535685569365586
14.24,0.393434226802135
14.245,0.391171804510357
14.25,0.3892792506790306
14.255,0.38922866493137964
14.26,0.39141912257375655
14.265,0.39462921021802233
14.27,0.3970433550081484
14.275,0.39759500161795347
14.28,0.39667261408219356
14.285,0.39581013442518476
14.29,0.3965435522853156
14.295,0.39934075021836807
14.3,0.4033530793053714
14.305,0.40695475347179566
14.31,0.4087143976820048
14.315,0.4082305906840508
14.32,0.40620345243890726
14.325,0.40382990235521554
14.33,0.4021783019098248
14.335,0.40183758479612053
14.34,0.4026943086414539
14.345,0.40380260405723956
14.35,0.4036991054973871
14.355,0.4014356977212344
14.36,0.3976474073237732
14.365,0.39443357817464064
14.37,0.39392904203376805
14.375,0.3967963189213959
14.38,0.40180839654982914
14.385,0.40667702851842724
14.39,0.409448792163522
14.395,0.40960615609431844
14.4,0.40825574743373
14.405,0.40718462706095976
14.41,0.40738901974269504
14.415,0.4083684009971182
14.42,0.40874491628798865
14.425,0.407454244237293
14.43,0.40455145108562757
14.435,0.4011404947761404
14.44,0.39845456570352034
14.445,0.39685148891397587
14.45,0.3955996056561689
14.455,0.3935397695493326
14.46,0.3900740031723492
14.465,0.3857239670376676
14.47,0.3818383063501331
14.475,0.3798870249495439
14.48,0.38081510884860564
14.485,0.38438732911895407
14.49,0.3889785212598303
14.495,0.39245606307102937
14.5,0.3934540911433279
14.505,0.3919266804745895
14.51,0.38895134281990407
14.515,0.3860877924843565
14.52,0.38446024106594334
14.525,0.38416542780331403
14.53,0.3845583382331512
14.535,0.385077401595278
14.54,0.38563295222912014
14.545,0.38616329551917206
14.55,0.3863208216282875
14.555,0.3859848484639157
14.56,0.3855446922583706
14.565,0.3853832515489543
14.57,0.3857247292232031
14.575,0.3868810614821416
14.58,0.388756809694251
14.585,0.39044795147749306
14.59,0.391163927189947
14.595,0.3910263557347856
14.6,0.39039502769318724
14.605,0.3892398708883991
14.61,0.38786732021985615
14.615,0.3875267455470521
14.62,0.38932958315288735
14.625,0.39268837966302217
14.63,0.3954912843052554
14.635,0.3959449255954628
14.64,0.3941830414717019
14.645,0.3924680639688257
14.65,0.39384276591339906
14.655,0.39978212688876646
14.66,0.40871264869765983
14.665,0.4169954226655345
14.67,0.4213623587967833
14.675,0.4207018798637625
14.68,0.41645290364309256
14.685,0.4116666466095328
14.69,0.4089409801945197
14.695,0.4085127767227216
14.7,0.40838787066992505
14.705,0.4065874385036824
14.71,0.4030684926665562
14.715,0.39925705212116097
14.72,0.39626379670262474
14.725,0.39412763387566413
14.73,0.3924088329767731
14.735,0.39091350625728993
14.74,0.3898554394563091
14.745,0.3895270206461134
14.75,0.3899306948071979
14.755,0.3907568691229005
14.76,0.3915789572910343
14.765,0.39215477521724096
14.77,0.3927639957257688
14.775,0.3939287071092175
14.78,0.3955045680054621
14.785,0.396469779431095
14.79,0.39582433654023375
14.795,0.39333560948495827
14.8,0.3894025443630519
14.805,0.384779849022596
14.81,0.3812472489182746
14.815,0.38291177190504455
14.82,0.3956746435440264
14.825,0.4233186665920407
14.83,0.46290517908753825
14.835,0.5036580974485395
14.84,0.5307888882850768
14.845,0.5328126556254605
14.85,0.508315620427148
14.855,0.4670526193194219
14.86,0.4244344691796096
14.865,0.39385093543428806
14.87,0.3811947926368164
14.875,0.38336829653087645
14.88,0.39139998254087655
14.885,0.3965694053445161
14.89,0.39524191592057917
14.895,0.38924508435158006
14.9,0.3826470261178909
14.905,0.3784018104445147
14.91,0.377433045659233
14.915,0.3795284135095917
14.92,0.3838743980370203
14.925,0.3889038558104768
14.93,0.39266250858909313
14.935,0.3938202278890489
14.94,0.3923634038020986
14.945,0.38945208904134776
14.95,0.3866735980602194
14.955,0.38525531716432815
14.96,0.3856569025539224
14.965,0.387561324946991
14.97,0.39017736370757533
14.975,0.39269891603736534
14.98,0.3945760619316636
14.985,0.3955644201571705
14.99,0.39579533272547013
14.995,0.39568225117685707
15.0,0.3955357014350788
15.005,0.39545225535032724
15.01,0.3956858333873961
15.015,0.39676396691460625
15.02,0.39895723768742314
15.025,0.4017345521478194
15.03,0.40391783256299846
15.035,0.40451264554386546
15.04,0.40352257264679725
15.045,0.4020205072253959
15.05,0.4013879822586292
15.055,0.4022721975090351
15.06,0.4040606417203752
15.065,0.4054736083327042
15.07,0.405819011056165
15.075,0.4055165054498956
15.08,0.40545012499634986
15.085,0.40615388106815076
15.09,0.40744359128789714
15.095,0.40838636971828124
15.1,0.4078601184298033
15.105,0.4055505246135053
15.11,0.4022445333148196
15.115,0.39901518538546604
15.12,0.396275086539533
15.125,0.39362509581063465
15.13,0.39060518409407485
15.135,0.38756247861253196
15.14,0.3854381799726607
15.145,0.38461214696043766
15.15,0.38442796372855537
15.155,0.3839799906202029
15.16,0.38299875890236007
15.165,0.3819499208431866
15.17,0.3815815809174469
15.175,0.38246042540374825
15.18,0.38472955520108554
15.185,0.3879278036242795
15.19,0.3908962648189417
15.195,0.392283253669127
15.2,0.3915660548845678
15.205,0.38950435470060313
15.21,0.38743921476126897
15.215,0.38623325688996096
15.22,0.3859754931607183
15.225,0.3864843146340425
15.23,0.387551672109249
15.235,0.3885531761326106
15.24,0.3885338784426807
15.245,0.3872186861065196
15.25,0.3855472496189397
15.255,0.3848077607940571
15.26,0.38538111210323417
15.265,0.3864405873740753
15.27,0.3868167604391819
15.275,0.3861253147971498
15.28,0.38503845531971237
15.285,0.384641349816039
15.29,0.3857365189958294
15.295,0.3884837190608431
15.3,0.39226990738363116
15.305,0.3959677932536996
15.31,0.3986045690813339
15.315,0.3999533890261152
15.32,0.4005408953160677
15.325,0.4010270212103355
15.33,0.4015867947967378
15.335,0.4019975595801473
15.34,0.4021313460780899
15.345,0.40202749619131106
15.35,0.4015544498145056
15.355,0.40027519474633855
15.36,0.3977668913875815
15.365,0.3941573716247059
15.37,0.39033764657517295
15.375,0.38746162330333667
15.38,0.38614257468536317
15.385,0.3861370131341034
15.39,0.3866761955412846
15.395,0.3870114359513547
15.4,0.386841332137942
15.405,0.38649094649026505
15.41,0.3866370104043688
15.415,0.387588689416589
15.42,0.38883086285572477
15.425,0.3895157649521201
15.43,0.3893861472665855
15.435,0.3889957346562737
15.44,0.38901033523972084
15.445,0.3893428050529148
15.45,0.3888583958941258
15.455,0.38596529610824415
15.46,0.3801744939976608
15.465,0.37425429481906747
15.47,0.3751367384395878
15.475,0.39097483515786985
15.48,0.42487545419986017
15.485,0.4702741808712399
15.49,0.51226018826139
15.495,0.5342975050214925
15.5,0.5266622177482495
15.505,0.49212405972234136
15.51,0.44487039934776207
15.515,0.40259522106436263
15.52,0.3771656240145156
15.525,0.370017488754988
15.53,0.3740088164765715
15.535,0.3793226157946022
15.54,0.37964455948445935
15.545,0.37505376140391694
15.55,0.36994448526875234
15.555,0.3682174174791331
15.56,0.3704069520137242
15.565,0.37465931498654925
15.57,0.3790164541330821
15.575,0.3823008892763096
15.58,0.3838472755154361
15.585,0.38344431450381383
15.59,0.38168688735306233
15.595,0.3799505639870394
15.6,0.3795861923500499
15.605,0.3810394789396213
15.61,0.38368339882429786
15.615,0.38624582483368175
15.62,0.38755421054120553
15.625,0.38735198821267586
15.63,0.3864076972037927
15.635,0.38573702001983545
15.64,0.38592703977744724
15.645,0.3870413086746161
15.65,0.38875365294611924
15.655,0.390561037784302
15.66,0.39194675236024873
15.665,0.39254268786631646
15.67,0.392617373199132
15.675,0.39314884271242473
15.68,0.39465482339202274
15.685,0.3962637388464514
15.69,0.39661100479121053
15.695,0.3952905469920981
15.7,0.39316306687935915
15.705,0.3918210806145446
15.71,0.3928580152114664
15.715,0.3969744783650755
15.72,0.403321050349957
15.725,0.4097162681973541
15.73,0.4137574647346713
15.735,0.4141439201146227
15.74,0.41139763938581814
15.745,0.40754304408720116
15.75,0.4047394511858426
15.755,0.4036561853179896
15.76,0.4032124144477905
15.765,0.4020767285705051
15.77,0.39999121891390227
15.775,0.3975102520526976
15.78,0.3951713711810036
15.785,0.39328014253352583
15.79,0.39204556218028597
15.795,0.3915142701078214
15.8,0.3913658895734863
15.805,0.3910008242265551
15.81,0.39003985046808376
15.815,0.3886679127115172
15.82,0.3874333683794625
15.825,0.38690792265969864
15.83,0.38751953419242136
15.835,0.38939862304999023
15.84,0.3922005516707126
15.845,0.3950595329566425
15.85,0.3968944718897249
15.855,0.39711943021769064
15.86,0.3961526393221908
15.865,0.39509645936700577
15.87,0.3949274313294479
15.875,0.3959281916088214
15.88,0.3976670882975881
15.885,0.3994039182936078
15.89,0.4004735343481212
15.895,0.4004393442717491
15.9,0.3993101277174304
15.905,0.3976772337701351
15.91,0.39632163698614176
15.915,0.3956815730923083
15.92,0.39575750493822603
15.925,0.3962647091596188
15.93,0.39679641916180924
15.935,0.39702745468185874
15.94,0.39690227680388623
15.945,0.3968079582835798
15.95,0.3975411198646613
15.955,0.39975239986438826
15.96,0.4033358875659877
15.965,0.40748633527370626
15.97,0.4112504482949513
15.975,0.414066065835402
15.98,0.415992445165257
15.985,0.4174079841793557
15.99,0.4185278368326562
15.995,0.4193026079727218
16.0,0.4194859627519012
16.005,0.41866174608012247
16.01,0.4165476957481761
16.015,0.4133703133070148
16.02,0.40979332568840243
16.025,0.40652109211893955
16.03,0.4039184112973283
16.035,0.4018721099909268
16.04,0.40004506166459747
16.045,0.3982269157129028
16.05,0.39646231996298487
16.055,0.3950756231513779
16.06,0.39451850157527946
16.065,0.3949388683550443
16.07,0.39592884625544655
16.075,0.39676022418332163
16.08,0.39695494254621283
16.085,0.3968892376202013
16.09,0.397675089045253
16.095,0.400006734809813
16.1,0.40322777591195685
16.105,0.4055980372867632
16.11,0.40512348401862114
16.115,0.40073683934270876
16.12,0.3943984603140179
16.125,0.3927332889927774
16.13,0.4049725962088348
16.135,0.43648657543516595
16.14,0.482394994486716
16.145,0.5273142490120294
16.15,0.5525594309096791
16.155,0.5462739687475241
16.16,0.5103118814386144
16.165,0.45954194121900493
16.17,0.41348929485407715
16.175,0.3858485084954418
16.18,0.37883780634280445
16.185,0.3846816239261498
16.19,0.39203448454236806
16.195,0.39355634694765407
16.2,0.3896806991374598
16.205,0.3855379646908836
16.21,0.384584889152432
16.215,0.3858178472172277
16.22,0.3864394355213629
16.225,0.38558978815008416
16.23,0.38491522998665484
16.235,0.38633268681835714
16.24,0.39004589297479947
16.245,0.3945944330298728
16.25,0.39821377362093563
16.255,0.3999141825843774
16.26,0.3996505982858657
16.265,0.39809221572405656
16.27,0.39637097377331976
16.275,0.3955287467431638
16.28,0.3958320252897174
16.285,0.39678605081179463
16.29,0.39784758976762596
16.295,0.3988490212054245
16.3,0.3997469519925842
16.305,0.4002980792748721
16.31,0.40019152810564235
16.315,0.39947711958493715
16.32,0.3987505158073806
16.325,0.39884849910711806
16.33,0.4003310752572933
16.335,0.4031514221218611
16.34,0.40672979799781095
16.345,0.41030844418090645
16.35,0.41317840786633664
16.355,0.4147741608691008
16.36,0.41502482367866106
16.365,0.4146095858734172
16.37,0.4144304909534282
16.375,0.4148337494011399
16.38,0.41557816645640777
16.385,0.4163361029836377
16.39,0.4169342679153691
16.395,0.41723132532154183
16.4,0.41699143335805916
16.405,0.41597473051231615
16.41,0.4141680775079731
16.415,0.4118866874056283
16.42,0.40959747254875506
16.425,0.40755674383511303
16.43,0.40555420949252713
16.435,0.4031329366118069
16.44,0.40016879244127895
16.445,0.3971292306609273
16.45,0.3947601108027676
16.455,0.3936376790689634
16.46,0.393874398240227
16.465,0.39501944854115467
16.47,0.39631119272758236
16.475,0.39721774869704884
16.48,0.3977986842614118
16.485,0.39852313824483493
16.49,0.39967743440446657
16.495,0.4009214949781972
16.5,0.40148196548085296
16.505,0.400839001999683
16.51,0.3992310376468339
16.515,0.3974530768433973
16.52,0.39613522721204253
16.525,0.39527953912488584
16.53,0.3945257294204688
16.535,0.3937040213625197
16.54,0.3929734623125728
16.545,0.39247885631261636
16.55,0.3920600495452567
16.555,0.39147017898218195
16.56,0.3908628492232377
16.565,0.3908396273922996
16.57,0.39189769988311335
16.575,0.39389543469398547
16.58,0.3960629211211677
16.585,0.3974996133869536
16.59,0.39772024136486656
16.595,0.39685917337272214
16.6,0.39556639627693463
16.605,0.394729168674214
16.61,0.39492669702553357
16.615,0.395965820923451
16.62,0.39720448049804025
16.625,0.3983676857581822
16.63,0.39977497801708883
16.635,0.4017915760098216
16.64,0.40429523822885194
16.645,0.40671796523377185
16.65,0.4085040865045747
16.655,0.40945837636115007
16.66,0.40971242576650846
16.665,0.409482556899275
16.67,0.40882902331440246
16.675,0.4076006899865782
16.68,0.4056973307274366
16.685,0.40328950943041186
16.69,0.40064973467325854
16.695,0.3979958552658538
16.7,0.39559783561208783
16.705,0.3937276845451274
16.71,0.39244294970230953
16.715,0.3916261719142823
16.72,0.39117657265827543
16.725,0.39103291563641795
16.73,0.39104825935802134
16.735,0.3909059987533236
16.74,0.39033990363993704
16.745,0.38959657594979735
16.75,0.38946386689958107
16.755,0.39058468055668344
16.76,0.39278142369084584
16.765,0.39498068943407283
16.77,0.395495589615429
16.775,0.3926103966523972
16.78,0.3862176725207053
16.785,0.3803190024044019
16.79,0.38346883398187387
16.795,0.4042293808928462
16.8,0.44371040796665945
16.805,0.49153620153055577
16.81,0.5294920977248967
16.815,0.5411791896226118
16.82,0.5214766267854128
16.825,0.4793476032425985
16.83,0.43226628446609583
16.835,0.396565752905534
16.84,0.37980352539497664
16.845,0.37889824429769114
16.85,0.38441987450496923
16.855,0.38782659319043067
16.86,0.3863585895599114
16.865,0.3824917287758891
16.87,0.3796969354165779
16.875,0.37899421333355127
16.88,0.37908472446828356
16.885,0.37871462696166563
16.89,0.3780344918991745
16.895,0.3779316061492485
16.9,0.3789070235389068
16.905,0.3807714249848751
16.91,0.3829396132518772
16.915,0.3847837345135026
16.92,0.38592381881526727
16.925,0.38640348153779436
16.93,0.38659385208305597
16.935,0.3869052805610349
16.94,0.38758071982384645
16.945,0.38860325306427107
16.95,0.38969671505409575
16.955,0.3905704330967587
16.96,0.3912030211081124
16.965,0.3917454220286903
16.97,0.3922489678141028
16.975,0.39265853167022774
16.98,0.39295660381019537
16.985,0.39320045398282083
16.99,0.39347073955090417
16.995,0.3938225606566679
17.0,0.39431726156270847
17.005,0.39508503674134093
17.01,0.39628870983219067
17.015,0.39807670597965134
17.02,0.40054528405408174
17.025,0.4035405214761238
17.03,0.4065262161582747
17.035,0.40883599129628423
17.04,0.41003749635402625
17.045,0.41010465125752693
17.05,0.40941732425335453
17.055,0.40851008392713617
17.06,0.40766928626027576
17.065,0.4067836410323622
17.07,0.4055328457253993
17.075,0.40370849824700766
17.08,0.4014235410999941
17.085,0.3989257685188604
17.09,0.39626211644645926
17.095,0.39338865736902634
17.1,0.39050365756778377
17.105,0.38801533561038204
17.11,0.38629927640158646
17.115,0.3855523435028973
17.12,0.38570330865111613
17.125,0.3864378178279807
17.13,0.3873451938361279
17.135,0.38806357825637766
17.14,0.38843163837129585
17.145,0.38848456372649004
17.15,0.3882016941129684
17.155,0.38746856709618366
17.16,0.38637644908516305
17.165,0.38530639786586834
17.17,0.384711799962482
17.175,0.38493437848825274
17.18,0.38603904308483183
17.185,0.38772761709703957
17.19,0.38956011075748587
17.195,0.39126922751676735
17.2,0.3927999123002741
17.205,0.3940887041568485
17.21,0.39489735849483887
17.215,0.3949865260559488
17.22,0.39441768110350395
17.225,0.3934951544776836
17.23,0.392469060449389
17.235,0.3914567696903934
17.24,0.39053985068574143
17.245,0.38980236788185235
17.25,0.3892928830234
17.255,0.388969932915438
17.26,0.3887562876584985
17.265,0.3886537678270355
17.27,0.3886981479956658
17.275,0.38889001383901406
17.28,0.3892294752173468
17.285,0.389635654138888
17.29,0.38997180940608206
17.295,0.3904184617087282
17.3,0.391519773914894
17.305,0.39364292696555353
17.31,0.39670818214626985
17.315,0.4003932465804956
17.32,0.4041744841245132
17.325,0.4072830300333614
17.33,0.40909103567275684
17.335,0.40968868985286083
17.34,0.40983489580805527
17.345,0.410079516385235
17.35,0.41011596350933927
17.355,0.4092392703965051
17.36,0.4071279623805023
17.365,0.4040262288369289
17.37,0.40057003500241123
17.375,0.39744429004006143
17.38,0.3949385148208558
17.385,0.39297181022731015
17.39,0.39144334447531637
17.395,0.39028157229618565
17.4,0.3894704580035055
17.405,0.38909536449837867
17.41,0.3889780806552084
17.415,0.3886311983752149
17.42,0.38799699647879154
17.425,0.38778378940000574
17.43,0.38888381090943164
17.435,0.3915861436857532
17.44,0.3949363965998446
17.445,0.3967000708794487
17.45,0.3944565396576869
17.455,0.38759152543562686
17.46,0.37971012868613097
17.465,0.3793815483930444
17.47,0.3957920104216432
17.475,0.43100191837131435
17.48,0.47613364739181535
17.485,0.5149379836791482
17.49,0.5316722751306795
17.495,0.5192910429067463
17.5,0.48366130124612505
17.505,0.4400149421267582
17.51,0.40399545551329324
17.515,0.3841662365504306
17.52,0.3797381488681335
17.525,0.38334161311269893
17.53,0.3869489856918849
17.535,0.3868623856083234
17.54,0.3841620963968787
17.545,0.3815483754423596
17.55,0.38031596167972276
17.555,0.3798478730308405
17.56,0.3792172378044677
17.565,0.3785746744883779
17.57,0.37874540849153754
17.575,0.3800215193920661
17.58,0.38182137290624435
17.585,0.3833256582701856
17.59,0.3841681673743043
17.595,0.3845190217169107
17.6,0.3846872100542646
17.605,0.38488912765481936
17.61,0.3853285815256944
17.615,0.3861398667125424
17.62,0.38718343436282965
17.625,0.3880662933077022
17.63,0.38839899663061966
17.635,0.3880990255894208
17.64,0.3875693632893676
17.645,0.38755083268796053
17.65,0.38871546002063867
17.655,0.39128850574499924
17.66,0.39484301852765125
17.665,0.3983980502295636
17.67,0.4009019278347341
17.675,0.4017971384069191
17.68,0.4012748667197122
17.685,0.40012467566358634
17.69,0.3992648296401859
17.695,0.3992281402946912
17.7,0.3999902973563496
17.705,0.40118570508315704
17.71,0.4024271529579147
17.715,0.40351484787762687
17.72,0.40443082317834744
17.725,0.40514343683330434
17.73,0.40546700555968795
17.735,0.40516638317103093
17.74,0.4041895921291567
17.745,0.4027580110453065
17.75,0.40118129721139467
17.755,0.3995951687934871
17.76,0.39793607689235294
17.765,0.3961485316774896
17.77,0.3943814574890758
17.775,0.39296347691974126
17.78,0.39204660608613334
17.785,0.39125432715726455
17.79,0.38995306556499554
17.795,0.3879398785957428
17.8,0.38567955760924816
17.805,0.38396591902122895
17.81,0.38343435295710687
17.815,0.38409420626761176
17.82,0.38526813848347946
17.825,0.38624925648086667
17.83,0.38696241999492154
17.835,0.38789710208892103
17.84,0.38956350122513217
17.845,0.39189630210859516
17.85,0.39402633374642326
17.855,0.3949147895964552
17.86,0.3942982422016293
17.865,0.39281785511789924
17.87,0.39142747588390225
17.875,0.3908168682599122
17.88,0.39103959080974693
17.885,0.3915405427988638
17.89,0.3916765035653178
17.895,0.3911698782977502
17.9,0.3901725614929697
17.905,0.3891549073338067
17.91,0.3886558010033956
17.915,0.3889535380452739
17.92,0.3898566059368599
17.925,0.3906475039584284
17.93,0.3904449667190536
17.935,0.3890492744562169
17.94,0.38733473193023715
17.945,0.38660816362269845
17.95,0.38768308443312743
17.955,0.3903527663887673
17.96,0.3934165687928816
17.965,0.39543715269312396
17.97,0.3957573401739775
17.975,0.39480239688920415
17.98,0.39354961727852394
17.985,0.3927737866879124
17.99,0.3926097798070673
17.995,0.3927460831790691
18.0,0.3929648330641824
18.005,0.39341465037101275
18.01,0.3945038940588783
18.015,0.39650764072194455
18.02,0.3990606959465009
18.025,0.4012321833099915
18.03,0.40235606987933836
18.035,0.40262282717697523
18.04,0.4028520300201707
18.045,0.4038729068867428
18.05,0.4059056998460486
18.055,0.4082467851853738
18.06,0.40959395105267415
18.065,0.40882919944215024
18.07,0.4057355535517481
18.075,0.40120373325524744
18.08,0.396685250468181
18.085,0.39330188984199144
18.09,0.3913857075215875
18.095,0.3905824595900753
18.1,0.3901935709600836
18.105,0.38961620467773367
18.11,0.3887168247224254
18.115,0.3878605494482399
18.12,0.3875080914639914
18.125,0.3876832765880406
18.13,0.38795726813546444
18.135,0.3881031370122419
18.14,0.38855537136359214
18.145,0.38998170865477244
18.15,0.3923784279576636
18.155,0.39451175608393846
18.16,0.39430916176314995
18.165,0.39039064328437995
18.17,0.38419428092098906
18.175,0.38128073290029024
18.18,0.38978068789391596
18.185,0.4152404770293005
18.19,0.45497699439232375
18.195,0.49691772980123894
18.2,0.5245924146154124
18.205,0.525635110289845
18.21,0.4990331600985378
18.215,0.45606838318389725
18.22,0.41363980783749793
18.225,0.3850201653975207
18.23,0.37436254903646154
18.235,0.376905687175057
18.24,0.3834871304403608
18.245,0.38662810703797845
18.25,0.38442193985996603
18.255,0.3798299511697912
18.26,0.37672680171734524
18.265,0.37649302739019175
18.27,0.37789152609362986
18.275,0.3792667482431321
18.28,0.3799787108492561
18.285,0.38012998590597685
18.29,0.3800136014502486
18.295,0.3799493086296514
18.3,0.3802081655319241
18.305,0.3810131905624866
18.31,0.3824757554393383
18.315,0.3843447761945699
18.32,0.3859560686879613
18.325,0.38655864879839696
18.33,0.3858483859252888
18.335,0.3844449489882315
18.34,0.3836832967844268
18.345,0.38461920306612046
18.35,0.3872850763587965
18.355,0.39078505698129035
18.36,0.39379067114431154
18.365,0.3951734840689883
18.37,0.3946311751647251
18.375,0.3928277992482302
18.38,0.39093297533403226
18.385,0.38998002007739985
18.39,0.39043147320157884
18.395,0.3921038105041032
18.4,0.3943661446380737
18.405,0.3964836421619422
18.41,0.3980048063630563
18.415,0.39890236341916674
18.42,0.3994044426587748
18.425,0.39988862203024833
18.43,0.40079371033476446
18.435,0.40224005096848753
18.44,0.4037689896598015
18.445,0.40467386295007884
18.45,0.4045540464145948
18.455,0.4035526747765899
18.46,0.4021818089820918
18.465,0.40094452178764783
18.47,0.4000281741140851
18.475,0.3991596425865568
18.48,0.39773114446085245
18.485,0.39532754549221905
18.49,0.3921780880476046
18.495,0.3890246499406679
18.5,0.3867463695650636
18.505,0.38593432932357186
18.51,0.3862928748053347
18.515,0.3866417913624684
18.52,0.3859835912550215
18.525,0.3843963645449012
18.53,0.38278264702027465
18.535,0.3820547014144382
18.54,0.38250821344331937
18.545,0.38371787570401505
18.55,0.38500258988304964
18.555,0.3859914414937028
18.56,0.3868372446161464
18.565,0.38800728069555734
18.57,0.3897293965132185
18.575,0.39159071403266343
18.58,0.3927873621137887
18.585,0.3927112361260771
18.59,0.39141635555008986
18.595,0.38974528502523104
18.6,0.3887618886623082
18.605,0.3888628424908894
18.61,0.3896139054664265
18.615,0.39030187690856905
18.62,0.3904120176460983
18.625,0.3898026517692247
18.63,0.38863319276651476
18.635,0.38720655093695744
18.64,0.3859639494936881
18.645,0.3853513571547689
18.65,0.38547948761333417
18.655,0.38615847512033274
18.66,0.3872111442525663
18.665,0.38853528956326555
18.67,0.3900901731010615
18.675,0.3918386535753335
18.68,0.3934754806900181
18.685,0.3944513049946098
18.69,0.39441463332499554
18.695,0.393509347867612
18.7,0.39246932258708966
18.705,0.39240455825177406
18.71,0.3940048588411097
18.715,0.3968943006711408
18.72,0.3998523305647355
18.725,0.4015970103028588
18.73,0.4017443606261839
18.735,0.401221136996057
18.74,0.4013661541831186
18.745,0.4026958448324079
18.75,0.4046587022931517
18.755,0.4060562382884321
18.76,0.4057001586542577
18.765,0.40322480003776834
18.77,0.3993314844140525
18.775,0.39530173596077967
18.78,0.392352083049857
18.785,0.3910269889616172
18.79,0.39109951853417946
18.795,0.39208402516349256
18.8,0.3933113652038062
18.805,0.3937832180494954
18.81,0.3928862202680849
18.815,0.39096543542492246
18.82,0.38882347253232286
18.825,0.387211473881284
18.83,0.3866712789715197
18.835,0.387365802919051
18.84,0.3891631179635039
18.845,0.3916286527702766
18.85,0.39388163269867893
18.855,0.39491406379121585
18.86,0.3935889250675095
18.865,0.38897393040346095
18.87,0.3832876030824342
18.875,0.3840921692493605
18.88,0.4003112622240386
18.885,0.4351013200873193
18.89,0.4817062818655071
18.895,0.5238924577567251
18.9,0.5426494278556316
18.905,0.5281061528843628
18.91,0.4867094452606794
18.915,0.43665413999880254
18.92,0.39695424784992284
18.925,0.37803529265712144
18.93,0.3778318432049134
18.935,0.3856034143020565
18.94,0.3907380418092769
18.945,0.3892609168981322
18.95,0.38404670817631825
18.955,0.3801304846193402
18.96,0.3795631232326196
18.965,0.380673486436754
18.97,0.38135887742079855
18.975,0.38123232689667785
18.98,0.38097952054880113
18.985,0.3813693299060955
18.99,0.3827681973493284
18.995,0.384886418117203
19.0,0.38706336175988454
19.005,0.3886433731456151
19.01,0.38915429111863536
19.015,0.3887314682809872
19.02,0.38826025890572435
19.025,0.38868371217205416
19.03,0.3902343905618356
19.035,0.39225706034596014
19.04,0.3937032001491829
19.045,0.3940473045757099
19.05,0.39366922569786444
19.055,0.3933329414291021
19.06,0.3936657266694436
19.065,0.3949556661677713
19.07,0.3968961185548811
19.075,0.3986344149822602
19.08,0.39942157489725116
19.085,0.39924287445318674
19.09,0.39879146397336207
19.095,0.39879311727413663
19.1,0.3993586889937646
19.105,0.4000745467814733
19.11,0.40057285313013935
19.115,0.40088070262946157
19.12,0.4013967910151813
19.125,0.40253207661166146
19.13,0.40423733274995477
19.135,0.406031638369909
19.14,0.4074766771449606
19.145,0.4083689813172034
19.15,0.40862055412848913
19.155,0.4082419865504915
19.16,0.40736385980436673
19.165,0.4061320942081449
19.17,0.40454723460177755
19.175,0.4024438765741823
19.18,0.39980589779281467
19.185,0.3970915012450827
19.19,0.3949957948596216
19.195,0.3939023882812916
19.2,0.39368817933699296
19.205,0.39391517809742654
19.21,0.3941314457977072
19.215,0.39411468635561686
19.22,0.39389580205000435
19.225,0.3936277681715394
19.23,0.39350030940622044
19.235,0.39364396321415596
19.24,0.3939820702112587
19.245,0.39421323859779933
19.25,0.39402255940581365
19.255,0.39340748783681095
19.26,0.3928006374851595
19.265,0.3927319628307197
19.27,0.3933463327022654
19.275,0.39433096756581765
19.28,0.39525783520131075
19.285,0.3959446529023509
19.29,0.396535952821264
19.295,0.3972428875144294
19.3,0.3980086678912749
19.305,0.3984372658317154
19.31,0.39801473607071436
19.315,0.3965113997257839
19.32,0.3943649495496401
19.325,0.39263555382150783
19.33,0.39239300483998374
19.335,0.3939515540361526
19.34,0.39650699029430186
19.345,0.39854853225213815
19.35,0.3988953603245005
19.355,0.3975251187357839
19.36,0.3955249002970005
19.365,0.39430298154760135
19.37,0.3945758977803093
19.375,0.39580465900878486
19.38,0.39668492084667456
19.385,0.3963151499436629
19.39,0.3948923192381964
19.395,0.39347466526073144
19.4,0.3932667880442529
19.405,0.39488848427827244
19.41,0.397940840960979
19.415,0.40124922600339225
19.42,0.40377412242443356
19.425,0.40538940184684574
19.43,0.40669271012883246
19.435,0.4081604349440117
19.44,0.40969459644093215
19.445,0.41078230828691
19.45,0.41075262145133895
19.455,0.409148999264109
19.46,0.4063129235577771
19.465,0.40338324609632603
19.47,0.401282257254004
19.475,0.39987887232571906
19.48,0.3984719782019634
19.485,0.396805950296009
19.49,0.3952132700002409
19.495,0.39400110424894214
19.5,0.39308346894902185
19.505,0.39211025902038793
19.51,0.39084598230931306
19.515,0.3895842852494761
19.52,0.38904581650346737
19.525,0.3896159678648317
19.53,0.3909912796211047
19.535,0.39275827823243575
19.54,0.39474309827496795
19.545,0.3965763581913733
19.55,0.39757339187030627
19.555,0.39717618172355595
19.56,0.3949060553242607
19.565,0.39039259362117196
19.57,0.38522491141044146
19.575,0.3852189263172272
19.58,0.39877375726576253
19.585,0.43038657419825205
19.59,0.47456444644394646
19.595,0.5162055066683556
19.6,0.5381505143194636
19.605,0.5308261605177694
19.61,0.497452823796278
19.615,0.45178079551472516
19.62,0.4104904612940267
19.625,0.3850337430924265
19.63,0.37715449234449355
19.635,0.38020413826930355
19.64,0.38502001261814517
19.645,0.386009196497947
19.65,0.3832785070721425
19.655,0.38016953705905343
19.66,0.379174021058675
19.665,0.3800671293627304
19.67,0.3812833197829259
19.675,0.38198108029269595
19.68,0.3824214892672331
19.685,0.3831625915244742
19.69,0.38445926266477887
19.695,0.38614306428585704
19.7,0.38777829283558934
19.705,0.3889234775307107
19.71,0.3893101523839005
19.715,0.38898129473927395
19.72,0.38836407874304385
19.725,0.3880414994989445
19.73,0.38837557657653066
19.735,0.38934486021555464
19.74,0.39061547378334743
19.745,0.39177251658545786
19.75,0.39257399134032206
19.755,0.3929451047642057
19.76,0.39286827560927345
19.765,0.3925209085002044
19.77,0.3923662177718594
19.775,0.3928505615026716
19.78,0.3940485050523794
19.785,0.395600683235702
19.79,0.39689815355715335
19.795,0.3974530587517901
19.8,0.39729161709730726
19.805,0.39704778786862643
19.81,0.39763910302230504
19.815,0.39966622356828274
19.82,0.40290642059097476
19.825,0.40637407316807944
19.83,0.4089420358198552
19.835,0.4099857143522157
19.84,0.4096488132170168
19.845,0.40861900560265974
19.85,0.40750328040267425
19.855,0.4063318059260582
19.86,0.4047309253866369
19.865,0.40249365022289707
19.87,0.39981654337642014
19.875,0.39705842629735005
19.88,0.3945053142196278
19.885,0.39236460164648446
19.89,0.39070259200048396
19.895,0.3893345969750743
19.9,0.3880665282627042
19.905,0.38703244373306545
19.91,0.3864870202674332
19.915,0.38641688456952683
19.92,0.38666144049613205
19.925,0.38712717800853835
19.93,0.3876456630167142
19.935,0.38800328867975875
19.94,0.38825180493615546
19.945,0.388636357467746
19.95,0.38921522601844405
19.955,0.3898172804727834
19.96,0.3902637676120983
19.965,0.39042395582643163
19.97,0.3901859274628795
19.975,0.3896136350220941
19.98,0.3891176926319082
19.985,0.38920530935487546
19.99,0.3899700956017479
19.995,0.3910591713407003
20.0,0.3921081002626976
20.005,0.392887324611615
20.01,0.393196852016156
20.015,0.3929950850141316
20.02,0.3924363919351523
20.025,0.3916469761084663
20.03,0.3908022766583237
20.035,0.3903268911076073
20.04,0.39055577377459744
20.045,0.39132633591097005
20.05,0.39221702573023115
20.055,0.3929761187272211
20.06,0.3934834504027309
20.065,0.39349430325933815
20.07,0.39277021155577335
20.075,0.3915477008414576
20.08,0.3905498278785972
20.085,0.3902825341637458
20.09,0.3905964842451917
20.095,0.3911137582594925
20.1,0.39171135981408334
20.105,0.3924092925113607
20.11,0.3930931912140216
20.115,0.39355435442920594
20.12,0.39376261202032775
20.125,0.3939975480818477
20.13,0.39463024971940097
20.135,0.3958503085777758
20.14,0.3976445493533209
20.145,0.3998552581726051
20.15,0.40218674531762577
20.155,0.4042436248462005
20.16,0.4055972180652193
20.165,0.40600883891414874
20.17,0.4057450116196305
20.175,0.40538648177832753
20.18,0.4051655658965639
20.185,0.40473489446647765
20.19,0.4035774077333295
20.195,0.4014763090434158
20.2,0.3987011780247924
20.205,0.39582026553818644
20.21,0.3933626284934501
20.215,0.3917217244445279
20.22,0.39106600527115654
20.225,0.39107674289877853
20.23,0.3911101307722754
20.235,0.39078254651130545
20.24,0.39019662898604246
20.245,0.38972575615792826
20.25,0.3897119441563468
20.255,0.3902467579308472
20.26,0.3912667657438261
20.265,0.39267170819795616
20.27,0.3940421173758402
20.275,0.3945422944607502
20.28,0.3932858648094455
20.285,0.38972729137703027
20.29,0.3846910843728927
20.295,0.3820243496071095
20.3,0.38840699439301996
20.305,0.40987046738533156
20.31,0.44674405494958563
20.315,0.4902790604322261
20.32,0.5247334119307774
20.325,0.5355892603388235
20.33,0.5179871134324364
20.335,0.4790683601664896
20.34,0.43406810761223175
20.345,0.39873894632880474
20.35,0.38134871002531456
20.355,0.37964409250981124
20.36,0.38494387642983513
20.365,0.3888074347763922
20.37,0.38753131281311776
20.375,0.3829562438227304
20.38,0.37930538573026534
20.385,0.378719887927771
20.39,0.3800963902228894
20.395,0.38143872436088827
20.4,0.38199801290007374
20.405,0.38234247318144066
20.41,0.38315436764351685
20.415,0.3842812546801584
20.42,0.38510334921332157
20.425,0.3854290661185408
20.43,0.38554990617796503
20.435,0.3858088500561932
20.44,0.38640990690846316
20.445,0.3873101681346336
20.45,0.3883015447982839
20.455,0.3892987516526684
20.46,0.3902810500410184
20.465,0.3910835581116445
20.47,0.3915882850993985
20.475,0.3919570385686751
20.48,0.3924924175330836
20.485,0.3933158860260933
20.49,0.39421165350545495
20.495,0.39494539332689327
20.5,0.3956752229744895
20.505,0.3966667537402679
20.51,0.3978190354079289
20.515,0.39893597512030293
20.52,0.4000822584219701
20.525,0.4013048351093271
20.53,0.4024390317227035
20.535,0.4033380114208935
20.54,0.4039471730265462
20.545,0.4042306829230529
20.55,0.40425523055929685
20.555,0.40421188856614
20.56,0.4042623741481002
20.565,0.40444186389500475
20.57,0.4046942084855767
20.575,0.40490851803344097
20.58,0.404858495854011
20.585,0.4042147719171693
20.59,0.4028506837503932
20.595,0.4010690997651561
20.6,0.3992566482467542
20.605,0.39741805503785776
20.61,0.3953146350475955
20.615,0.39293179326947997
20.62,0.39058359322326486
20.625,0.38867245978953185
20.63,0.3875076204259742
20.635,0.3871967598500294
20.64,0.3874837886671647
20.645,0.38781231502794944
20.65,0.3878205050301412
20.655,0.3877246355653707
20.66,0.3880212156237531
20.665,0.3888819432718681
20.67,0.38997717112441
20.675,0.39082383429498824
20.68,0.39120120231943467
20.685,0.391228996346321
20.69,0.3911353684949483
20.695,0.3910620841548061
20.7,0.3910491166836491
20.705,0.39107954804255346
20.71,0.391160593957514
20.715,0.39137843399817684
20.72,0.39177857641599456
20.725,0.3922303566068499
20.73,0.3925177732045653
20.735,0.39253331316904067
20.74,0.39239097777613946
20.745,0.3924233434443689
20.75,0.39297540835803135
20.755,0.3940536284916719
20.76,0.3951803779046022
20.765,0.39568724924563387
20.77,0.39524631266779653
20.775,0.39412454960954907
20.78,0.39287413484598194
20.785,0.3918682823544057
20.79,0.39123292409316224
20.795,0.39104971243523085
20.8,0.3914054925674003
20.805,0.3922528781085755
20.81,0.3933209236725439
20.815,0.39423095300486427
20.82,0.3946865412552557
20.825,0.3944935308485238
20.83,0.39356895292140953
20.835,0.3921894092195469
20.84,0.3910861305160265
20.845,0.3909871792140918
20.85,0.39204514245685007
20.855,0.3937484419876095
20.86,0.3953452468465612
20.865,0.3964220209853736
20.87,0.39715263190003997
20.875,0.3980284012960287
20.88,0.3994267751375288
20.885,0.4013704484618864
20.89,0.4035335035181492
20.895,0.40546841834113123
20.9,0.4068447490612844
20.905,0.40754105976797
20.91,0.4077280176698074
20.915,0.40775110822624866
20.92,0.40758313454072764
20.925,0.40660781607501695
20.93,0.40434818623706786
20.935,0.40122130163301645
20.94,0.39834347708029827
20.945,0.39672681157436435
20.95,0.396596159932703
20.955,0.3971907151000251
20.96,0.3971746489120743
20.965,0.3954810800265377
20.97,0.3921173693741164
20.975,0.38832047116482177
20.98,0.3857997739001338
20.985,0.38566723315337087
20.99,0.3877744253468519
20.995,0.39071761721276693
21.0,0.39288395717065855
21.005,0.39399210537306356
21.01,0.3950703760067869
21.015,0.39671327573135906
21.02,0.3981419459666244
21.025,0.39770533892651494
21.03,0.3936245134089258
21.035,0.3858671252737277
21.04,0.3792211859808592
21.045,0.3832939856048451
21.05,0.40658932092769423
21.055,0.4486367958219154
21.06,0.49699862292247193
21.065,0.5324187556133021
21.07,0.539315982476879
21.075,0.5146390187581252
21.08,0.4693620748545368
21.085,0.42219633327605105
21.09,0.38958641564915736
21.095,0.3778172740374876
21.1,0.38167997108740026
21.105,0.38981218567165354
21.11,0.3927344629534135
21.115,0.38830696690709837
21.12,0.3810337064962985
21.125,0.3764972214857557
21.13,0.37657809081017835
21.135,0.3793054961724335
21.14,0.3817520974483694
21.145,0.38249632484416457
21.15,0.38210516135926814
21.155,0.3820869949089406
21.16,0.3835493736262853
21.165,0.3864213440406747
21.17,0.38944706255922096
21.175,0.3910684332175826
21.18,0.39077200855295025
21.185,0.3896381377444626
21.19,0.38946170456470275
21.195,0.3912132352900316
21.2,0.39412697752288717
21.205,0.3962867475902651
21.21,0.3962816752009652
21.215,0.39436994231116157
21.22,0.39223474790606483
21.225,0.39169748106260205
21.23,0.393295571416575
21.235,0.39596014188730955
21.24,0.39824473873308375
21.245,0.3996042215671315
21.25,0.4002824876450336
21.255,0.40046143747078317
21.26,0.39993027275558857
21.265,0.39853655194193877
21.27,0.3968831938569773
21.275,0.396359503736567
21.28,0.39820362932822545
21.285,0.40249182006206363
21.29,0.40785550518437963
21.295,0.41201212817162836
21.3,0.4131282201266198
21.305,0.41136586108811174
21.31,0.40906037206312934
21.315,0.40894431601328696
21.32,0.4117989249643164
21.325,0.41562192699835965
21.33,0.41724276191533405
21.335,0.41497705530043655
21.34,0.409728926920049
21.345,0.40368441602523625
21.35,0.39825059401138846
21.355,0.3933240643669357
21.36,0.38838881334947456
21.365,0.38396574174866216
21.37,0.3815434249049117
21.375,0.3820202213353075
21.38,0.3844902806352278
21.385,0.3867076131042196
21.39,0.3867879414905902
21.395,0.38463385954209983
21.4,0.38204507664570175
21.405,0.3816961139753342
21.41,0.385512832692925
21.415,0.3930193759769606
21.42,0.4010769051414075
21.425,0.40600044157130544
21.43,0.4064117811245546
21.435,0.4039556299936548
21.44,0.4011353527953332
21.445,0.398632103866819
21.45,0.3952857986566295
21.455,0.3907157713008263
21.46,0.3867551125920586
21.465,0.38554229399241774
21.47,0.38697319924784457
21.475,0.38858331865530465
21.48,0.3876806748049559
21.485,0.38397081061439936
21.49,0.3805346846922745
21.495,0.38163844437540106
21.5,0.3891853040850248
21.505,0.4013175675747716
21.51,0.4133579426645302
21.515,0.4192312338853265
21.52,0.41406635939417524
21.525,0.39859730007571714
21.53,0.38103702279173735
21.535,0.3718410928585194
21.54,0.3749531096376008
21.545,0.38455615717656594
21.55,0.39058675690550404
21.555,0.38737525978374876
21.56,0.3781989973417112
21.565,0.3724128720464768
21.57,0.3767712299636617
21.575,0.38841220342477273
21.58,0.39735693302596936
21.585,0.39593945972710365
21.59,0.3848199204410206
21.595,0.37214938080304766
21.6,0.3695443414762289
21.605,0.38474904966118606
21.61,0.4124423236182321
21.615,0.43460814825273264
21.62,0.4356757889785926
21.625,0.4170816280094686
21.63,0.3947137062219761
21.635,0.38362594390486565
21.64,0.38613677871469965
21.645,0.3922325429598328
21.65,0.39016323401017056
21.655,0.3779724648102264
21.66,0.3655645962991385
21.665,0.3651563187288009
21.67,0.3791813058096882
21.675,0.39699298106475117
21.68,0.40324671696601255
21.685,0.3906135607323726
21.69,0.3666823783677901
21.695,0.34974676187786735
21.7,0.35513923890965166
21.705,0.3813851887024091
21.71,0.40945679519380496
21.715,0.41840750026508455
21.72,0.4030807430646093
21.725,0.37743626180799095
21.73,0.36234845425422035
21.735,0.36888231003519434
21.74,0.38914272638364455
21.745,0.40219808526330814
21.75,0.3920955254875162
21.755,0.362787481933375
21.76,0.3354635043959893
21.765,0.3301984457284279
21.77,0.34882725812761234
21.775,0.3741188980386887
21.78,0.38495449689728545
21.785,0.3737079115013049
21.79,0.3521119065799775
21.795,0.3433146046469814
21.8,0.3668591294442114
21.805,0.42370014618645374
21.81,0.4898549433621373
21.815,0.5293557056801603
21.82,0.5219751243365526
21.825,0.47895175846773996
21.83,0.4290867602223933
21.835,0.3925740213229766
21.84,0.37060258081009445
21.845,0.35477312623628654
21.85,0.34001814186794516
21.855,0.32829113359822437
21.86,0.32433138859887445
21.865,0.3312801494561668
21.87,0.348463855028697
21.875,0.36945402904268315
21.88,0.3833875102510181
21.885,0.38239841929774837
21.89,0.3691244752398128
21.895,0.3570617118019926
21.9,0.36271308025092525
21.905,0.39216502118062535
21.91,0.43188392184624874
21.915,0.45726571033813457
21.92,0.4542459795091953
21.925,0.4296188650291225
21.93,0.3995876008344711
21.935,0.3747495044260791
21.94,0.358756734383051
21.945,0.35280917009745577
21.95,0.35328468045869854
21.955,0.35103046078930766
21.96,0.34324203769814654
21.965,0.3415964305769873
21.97,0.35728307472906073
21.975,0.380945913418047
21.98,0.38873040965149924
21.985,0.3680458702909028
21.99,0.3305301605218302
21.995,0.30101303612225366
22.0,0.29831686985884215
22.005,0.32346313643486385
22.01,0.35971234467848273
22.015,0.38371385424814575
22.02,0.3820976733588396
22.025,0.36119568313718564
22.03,0.341426856705702
22.035,0.34243701224580475
22.04,0.37053577792160897
22.045,0.41303300960123895
22.05,0.4437360817525516
22.055,0.44383190636490455
22.06,0.4223739669670653
22.065,0.40886530204848565
22.07,0.4228795054510636
22.075,0.45866059718329577
22.08,0.49787387924891263
22.085,0.5231181244433395
22.09,0.5181760867958998
22.095,0.47361761300003113
22.1,0.40098670926101027
22.105,0.3302696598431164
22.11,0.2866319451853097
22.115,0.2754033506370607
22.12,0.2883379449507983
22.125,0.31370559181948804
22.13,0.3395130835168453
22.135,0.3566378439391264
22.14,0.36294549552598393
22.145,0.3625424417230183
22.15,0.361881033448407
22.155,0.36618910968283575
22.16,0.37450702707179895
22.165,0.3778895732267277
22.17,0.36942050971838547
22.175,0.35657002019899386
22.18,0.355296393615571
22.185,0.370298827041696
22.19,0.388449764720224
22.195,0.3925451242043395
22.2,0.37616640184065886
22.205,0.3478717984823837
22.21,0.3270827029117741
22.215,0.3314367640169071
22.22,0.360225534693851
22.225,0.39161042322330336
22.23,0.4004908978045404
22.235,0.37883594922932534
22.24,0.34002277876198245
22.245,0.3086068562277369
22.25,0.30516138553323124
22.255,0.33273533122327786
22.26,0.37343649240651383
22.265,0.4016606357965724
22.27,0.4039888097948941
22.275,0.38624539845450606
22.28,0.3639042410334423
22.285,0.349878989539714
22.29,0.34910664715137374
22.295,0.3578077549077703
22.3,0.3666095960114471
22.305,0.36899498921380924
22.31,0.3683448028568133
22.315,0.3736713666885632
22.32,0.3873690651514943
22.325,0.4000083343836937
22.33,0.3988110379207871
22.335,0.38020559586685543
22.34,0.35449195524185406
22.345,0.3397467000252538
22.35,0.3493791642617602
22.355,0.38184194172537433
22.36,0.4209324325393466
22.365,0.4466906859939599
22.37,0.4481016118058691
22.375,0.42915866082071374
22.38,0.4052345697036889
22.385,0.3923925898594731
22.39,0.3971742150753683
22.395,0.4136667446544328
22.4,0.428847318826281
22.405,0.4324723923469538
22.41,0.42449123649340315
22.415,0.4134921470455147
22.42,0.40826091640865575
22.425,0.41140768072634987
22.43,0.41955258844097776
22.435,0.4273445518206267
22.44,0.4311881165929541
22.445,0.43054956836161196
22.45,0.4275433423777552
22.455,0.42609730355305614
22.46,0.4296316070025379
22.465,0.43779606378085756
22.47,0.4465811841179082
22.475,0.45217936812787773
22.48,0.45375947205371475
22.485,0.4538574784764388
22.49,0.4582348474060295
22.495,0.47384324110935744
22.5,0.5037706513405574
22.505,0.5428291541474505
22.51,0.5780581439055419
22.515,0.5946813808807428
22.52,0.5842926475738633
22.525,0.5502310672010694
22.53,0.506716341022911
22.535,0.47164060736415225
22.54,0.4564085530038023
22.545,0.4601026998183913
22.55,0.47313876919914394
22.555,0.48555511161330306
22.56,0.49171635140289227
22.565,0.4909975205521666
22.57,0.4868797781007065
22.575,0.4834415902209877
22.58,0.48165795604831
22.585,0.4808073546665121
22.59,0.48199615049825123
22.595,0.4868918202767529
22.6,0.4939894679285994
22.605,0.4988761928008928
22.61,0.4979590708744999
22.615,0.49180073793220397
22.62,0.4861297055320596
22.625,0.48841462295921934
22.63,0.500715171847933
22.635,0.5161139231012322
22.64,0.5241200792043358
22.645,0.5198490959071327
22.65,0.5075972135999967
22.655,0.4965077069838141
22.66,0.4936634546557687
22.665,0.49984907409757173
22.67,0.5093108772656467
22.675,0.5135304597946064
22.68,0.5078654756216697
22.685,0.4959645716855926
22.69,0.48702651399377145
22.695,0.4881076503222007
22.7,0.4982683983972632
22.705,0.5089802019101535
22.71,0.5107351338139766
22.715,0.5008799417247733
22.72,0.485366134689056
22.725,0.4730070983286038
22.73,0.4686079492382678
22.735,0.47060335011847537
22.74,0.47345013665925706
22.745,0.4723073583189569
22.75,0.46662917939791393
22.755,0.4600023862184353
22.76,0.4568083695596772
22.765,0.4586088669019567
22.77,0.4627829146942364
22.775,0.46445609067054516
22.78,0.46043935688457677
22.785,0.4519262160099159
22.79,0.4433994230244033
22.795,0.43843140254332424
22.8,0.43647835394244744
22.805,0.4341771846887328
22.81,0.42913181370024045
22.815,0.42154476696444976
22.82,0.41330784173555396
22.825,0.40687814666582456
22.83,0.4039976312038636
22.835,0.40409907258508576
22.84,0.40414412988293874
22.845,0.4004615601740744
22.85,0.3912496571539746
22.855,0.3783994506037438
22.86,0.36707279717017316
22.865,0.3622593123668475
22.87,0.3647779997712722
22.875,0.3706291451400842
22.88,0.374607651823993
22.885,0.37490262848477096
22.89,0.3743304982447308
22.895,0.37719970444059675
22.9,0.3849133915182549
22.905,0.39380241652179765
22.91,0.3967739946597756
22.915,0.3885458580909885
22.92,0.37087728634127587
22.925,0.3520465871132172
22.93,0.3400506362798834
22.935,0.3365931181697865
22.94,0.3376172352671314
22.945,0.3382936237935289
22.95,0.33731750379322617
22.955,0.33786977293460996
22.96,0.34457543800027124
22.965,0.35802237069071824
22.97,0.37199405056243207
22.975,0.3774389136405882
22.98,0.37005426145370274
22.985,0.35420720089484825
22.99,0.3398703677631063
22.995,0.33561781861559564
23.0,0.3428635100135009
23.005,0.3547980713806081
23.01,0.3613993065885425
23.015,0.3584142163798117
23.02,0.3523212787865956
23.025,0.3541457087069999
23.03,0.36766357689875706
23.035,0.38520574796379836
23.04,0.39428413666788836
23.045,0.38693415455651775
23.05,0.3653199261662007
23.055,0.3416290886702326
23.06,0.3312295070395432
23.065,0.34219310295574085
23.07,0.36900570477246025
23.075,0.3956465325535791
23.08,0.40584100668514844
23.085,0.3931197795026859
23.09,0.3641336480005189
23.095,0.33415654816330204
23.1,0.31766052838147696
23.105,0.3186827888253329
23.11,0.32846508690799436
23.115,0.33423675034570133
23.12,0.33070265320554965
23.125,0.32234723277045596
23.13,0.31712242489376324
23.135,0.3207934742816632
23.14,0.33515752964905776
23.145,0.35697555038950535
23.15,0.37817640701669397
23.155,0.3908999904064888
23.16,0.39378428429363677
23.165,0.39111475931212
23.17,0.38619026940506973
23.175,0.3788969826978152
23.18,0.3698304364738526
23.185,0.36446915190408796
23.19,0.37284749998731104
23.195,0.40294343698129576
23.2,0.45015340655870373
23.205,0.4943517407637752
23.21,0.5120606681301189
23.215,0.4927712365066082
23.22,0.4444533010275715
23.225,0.38743488744309706
23.23,0.3436187657515217
23.235,0.3261454880011859
23.24,0.3338570804150546
23.245,0.35354448464335614
23.25,0.3689560476992212
23.255,0.37137188660404
23.26,0.3636842294501679
23.265,0.35449624553867864
23.27,0.3496682499041111
23.275,0.35046200643576536
23.28,0.3570945219699455
23.285,0.37007359414495644
23.29,0.38651097309981064
23.295,0.3970858329876045
23.3,0.39080443961267985
23.305,0.36515565918902637
23.31,0.3307805851878233
23.315,0.30564674195604563
23.32,0.30451369528182237
23.325,0.3309012160297725
23.33,0.37495451137064345
23.335,0.4180823107578937
23.34,0.4424504979720211
23.345,0.44073993765291686
23.35,0.42010039805692634
23.355,0.3957421972165059
23.36,0.378341354219706
23.365,0.36761451462591077
23.37,0.35795003933214264
23.375,0.34789671561139984
23.38,0.342296140884625
23.385,0.3454113336475093
23.39,0.35362848449549666
23.395,0.35691073653240013
23.4,0.3479735118745139
23.405,0.3297070203190141
23.41,0.31469138738372743
23.415,0.3175841874288812
23.42,0.3444860525446083
23.425,0.38644684371704596
23.43,0.4235011340283079
23.435,0.4370747268068288
23.44,0.42188170931395
23.445,0.38939114341516845
23.45,0.35961390396422216
23.455,0.3464217985225146
23.46,0.34910978541500504
23.465,0.35708910724004056
23.47,0.36073159123342274
23.475,0.3579721388975126
23.48,0.353718724722524
23.485,0.35466461141648986
23.49,0.3631979086430748
23.495,0.37444538545640366
23.5,0.3791899168689087
23.505,0.3710466131849943
23.51,0.3519951857668894
23.515,0.33137580922331156
23.52,0.31965143023253906
23.525,0.32236149596264924
23.53,0.33796038671243994
23.535,0.35977306812549265
23.54,0.3800450737528109
23.545,0.39321164474615977
23.55,0.39723000274654663
23.555,0.39378254948572067
23.56,0.3871291255626439
23.565,0.38116403326117615
23.57,0.3771087095629081
23.575,0.3742441613768958
23.58,0.3719732379165103
23.585,0.37034404198356863
23.59,0.36922749012531875
23.595,0.3681446604718562
23.6,0.36727313712992005
23.605,0.3679065327972007
23.61,0.37099244695363587
23.615,0.3756672805913913
