time,ppg_1_green,ppg_1_red,ppg_1_ir,ppg_2_green,ppg_2_red,ppg_2_ir
0.0,0.49399839881054636,0.7898020431202247,0.7425103430726065,0.4342551939837569,0.5206253781004114,0.34660001186735884
0.005,0.5227663105266377,0.8380873775953376,0.7815471462964911,0.40867542036814536,0.5433645906684055,0.32187410349934376
0.01,0.4989158189243979,0.7854020269918527,0.7409797164704226,0.43711330555429223,0.5206037905934876,0.3499225730620946
0.015,0.48512366939252266,0.7616309130988619,0.720347893795799,0.45112550839496457,0.5097853659634536,0.3630127483965399
0.02,0.4989114172128388,0.7940314153831635,0.7436758846958723,0.43593557908216685,0.5234535358107848,0.3462170214977199
0.025,0.5092966044020081,0.8125803292319257,0.7575751234285282,0.42818755294626876,0.5302720705795495,0.33672502878722066
0.03,0.5031048393265133,0.7935037271691286,0.7420618019409353,0.43986449804977645,0.5196733536302581,0.34757749979369906
0.035,0.5000137329629974,0.7828404721837213,0.7336027889224488,0.4461315738527851,0.5133377886693966,0.3534611889974446
0.04,0.508750595603931,0.7980793685727097,0.7480750347214659,0.43831247823018993,0.5196311904344264,0.34404553148546124
0.045,0.5144252418764134,0.8059709650203396,0.7581198788662756,0.43528482211967234,0.522189646889495,0.3380174368419133
0.05,0.5106123332840494,0.7953310699609147,0.7508606805852929,0.44308879519043826,0.5150503112486516,0.3429937125450099
0.055,0.5086915644905053,0.7924175972472238,0.7469945885086716,0.4462317390674268,0.5123848851515462,0.3444073397416734
0.06,0.513072541001404,0.8026713178822569,0.7556543804183975,0.4405794755763927,0.5193744437501062,0.3375950267248921
0.065,0.5151255314230035,0.8024517713202094,0.7598448574267437,0.4394354315415445,0.5234826389951006,0.3355491950064595
0.07,0.5128886382645622,0.7898079471085097,0.7534335913705015,0.4454737913345742,0.5193209471857013,0.3414487100082063
0.075,0.5137514457794363,0.7881740827917986,0.751564539735274,0.4468344390748374,0.5172161916815813,0.3434974135822509
0.08,0.5180230273215568,0.7999287029737726,0.7590638761890456,0.44194573324712366,0.5225513014856391,0.339500589472565
0.085,0.5193584279494148,0.8041880694394234,0.7630246901548424,0.4418542739688029,0.527520995084992,0.3402942990981355
0.09,0.5190690708785443,0.798414377245383,0.7597412828224253,0.44780396456326077,0.527422531162406,0.34729216391648915
0.095,0.5227863429374323,0.7996796017724218,0.7592483158182745,0.44987930996436154,0.527612105535312,0.35019691127675084
0.1,0.5273100764668512,0.8087784137884076,0.7627765224842659,0.44718312168594476,0.5311417934608248,0.34773071177537856
0.105,0.526692713192158,0.8114167353094939,0.7623118236966472,0.4483338824536233,0.534173472585796,0.34930911793965536
0.11,0.5253924341779527,0.8091924171969546,0.760511740532098,0.4534381972699168,0.5356259147256854,0.3560844440928112
0.115,0.5302201538866411,0.8145325780003029,0.7664167837306297,0.4546898514018559,0.5389286558069575,0.3597391817703217
0.12,0.5365247268904828,0.8223612509458106,0.775104877600285,0.45266526630615844,0.5435818759008078,0.3595021732027989
0.125,0.537191666225083,0.819018744624984,0.7747704112080924,0.45453565248774525,0.5457617929946188,0.36258915642000983
0.13,0.5369969529502836,0.8106332434342708,0.7690700215594496,0.4590010227985659,0.5465697259283756,0.3689375538720362
0.135,0.5430742993114441,0.8128241410515896,0.7704933529178892,0.4592045707316147,0.5500312775206632,0.3718499182038393
0.14,0.5499960027122314,0.8219635871751053,0.777422504178375,0.4571583052754429,0.5548883479118684,0.37208730535757323
0.145,0.5495397054567911,0.8242104806549236,0.7788719547319128,0.4601283994668761,0.5573777108405862,0.37627408915981564
0.15,0.5464906106456008,0.8220793051427311,0.7757685592023832,0.46645807476363005,0.5592213371996924,0.38349197647623723
0.155,0.5495520257583355,0.8259981695787628,0.7773267366472506,0.4690515204968136,0.5641768163350404,0.3872997998165091
0.16,0.555110061926069,0.8312315741596837,0.7824101865690668,0.46888139015210684,0.5701223606452356,0.3883779001911275
0.165,0.5550854842968311,0.8279894473754631,0.7832977982481392,0.47195092127610144,0.5729546729023135,0.3923639274495586
0.17,0.5527621778514286,0.8226897286413263,0.7818171262956058,0.4771120542133308,0.5746123073212016,0.3982690392948066
0.175,0.5559997110487935,0.8261824093918244,0.7845287201592765,0.4790528733472898,0.5791682337826773,0.4009537978803881
0.18,0.5622461627307158,0.8328232678033283,0.7884130558192599,0.4790305867124786,0.5847719025277027,0.40167640996003107
0.185,0.5645259907963252,0.8323029189108583,0.787211482903983,0.48156275000897913,0.5871610086977184,0.40519781593536797
0.19,0.5653042342013261,0.8296720295906733,0.7850448585843555,0.48502627041167595,0.5874755194918839,0.4101207765469962
0.195,0.5708089474793948,0.8339489043052999,0.78897460165449,0.4855737638633993,0.5894786439466324,0.4121424034694293
0.2,0.5780278430779818,0.8397244813234019,0.7952315801442137,0.4854608519579168,0.5926407439892742,0.4128410898807574
0.205,0.5801626123674967,0.8384942618009368,0.7964893601153916,0.48829616118044067,0.5944196372379557,0.4160555734657172
0.21,0.5792166150999328,0.8355053603031923,0.7953727714527637,0.49127429844359743,0.5957815292619957,0.41997533712420176
0.215,0.5815395888614702,0.838582009052106,0.7980929891016079,0.4906182966782762,0.59866585594391,0.4212615721121485
0.22,0.5863767414412034,0.842982497299433,0.8022945346461062,0.48926303220978234,0.6016020802130387,0.42224534832717836
0.225,0.5892957028648581,0.8423516601185997,0.8030010293153226,0.4912946855087801,0.6029523826002757,0.4262556800780436
0.23,0.5914873704096862,0.841659843818958,0.8030746910107699,0.49438831919227133,0.6047558890039003,0.4308475346005209
0.235,0.5961246121750694,0.8458088105465726,0.8070313109149096,0.49498049306011027,0.6088139913988975,0.43280122960137224
0.24,0.6008321167591175,0.8487392664237053,0.8118906053407988,0.4951966808105669,0.612816484670377,0.43451136029220655
0.245,0.6023010684748544,0.8459898052279385,0.8136261063230024,0.49797243326924023,0.6144256596957841,0.4388317817732724
0.25,0.6031794002187493,0.8446637665555056,0.8151561568365001,0.5010359721338782,0.6153456747027748,0.44315459274601693
0.255,0.6070674930011976,0.8502232583052163,0.8196824338732752,0.5017926434021358,0.6177700918499309,0.4447240238563039
0.26,0.6120322076423941,0.8567908410308902,0.8239102254100371,0.5025063576633605,0.620668054498334,0.44612877809959306
0.265,0.6152548770781503,0.8595412127800239,0.8251037105534476,0.5053141695163845,0.6227033113953314,0.4499055881568233
0.27,0.6183317225116984,0.8628476762331678,0.8268004341747008,0.5078581214111197,0.6249729342654264,0.4535105146926762
0.275,0.6226429281919335,0.8685090356251338,0.8312323946585249,0.5085096459922962,0.6281630308507419,0.45477356028298666
0.28,0.625652129125048,0.8703070874742646,0.8343961334026254,0.5099932529900845,0.6307641822970547,0.45640254728834273
0.285,0.6264234588105099,0.86696905270777,0.8340923477061827,0.5136871798447371,0.632336519656034,0.46038747209120456
0.29,0.6282599392425844,0.866061263534572,0.8342816754676301,0.516391870854778,0.6348712645348021,0.46397787423643155
0.295,0.6318940687832771,0.8695194197885846,0.8367275009985259,0.5165084764004487,0.6391495101748548,0.4654769219793972
0.3,0.6330713405931656,0.8700517516287691,0.8371151557030004,0.5173455574184423,0.6432578024870583,0.4678336175218642
0.305,0.6304562772009422,0.86623596980662,0.8336695339180394,0.5208836029598166,0.6459145683958684,0.4725035084198766
0.31,0.6285309789267948,0.8658652891493727,0.830812582444132,0.5242557367000035,0.6479258575672301,0.4760511861606726
0.315,0.6292377208686897,0.8705063482485,0.8306015901548929,0.525503633325502,0.6499090294213035,0.4767516892713685
0.32,0.6282550184651485,0.8721263409187592,0.8292025538316118,0.527011077192077,0.652034168283334,0.478411870643783
0.325,0.6228138776646037,0.8682536581095708,0.8248512621105648,0.5304641297495969,0.6557457821916416,0.4838178908226134
0.33,0.6158140406374296,0.8652643593599839,0.8207532827400211,0.5338860757657985,0.661863606785205,0.49010130141263564
0.335,0.6093000616243489,0.86431446365892,0.8177710898305615,0.5359605044329154,0.667596010503033,0.49405252350077394
0.34,0.6012691009337469,0.8594386888732752,0.8127040393792897,0.5381590189526797,0.6696597577886986,0.4966923294965068
0.345,0.5916626303607396,0.8514602081138013,0.8054942185131482,0.5409229477325103,0.6695881075653081,0.49959889641037813
0.35,0.5842688372182726,0.8483547047342073,0.7998343622046481,0.5426735099138122,0.6714730749342694,0.5017528662646522
0.355,0.5800498911745208,0.8501129283564453,0.7957367221146597,0.5436513191438722,0.6752670042016623,0.5025607989348185
0.36,0.5752090995272808,0.8480852544157873,0.7897945221370322,0.5459100800258831,0.6770301920669104,0.5033225355080132
0.365,0.5678484296920641,0.8405033619553566,0.7829375690658213,0.5490200530015721,0.6751990448884221,0.5037581755755612
0.37,0.560260080522362,0.8344123781006703,0.7793836407241547,0.5505295059761589,0.6718977118935311,0.5014992884404604
0.375,0.5534884668614547,0.8318256599360454,0.7781812874190558,0.5506453464280171,0.6683310747371869,0.49629081493842647
0.38,0.5460453643347362,0.8278638198947778,0.7744686768502818,0.5517167296625571,0.6632710321531238,0.4903514291759867
0.385,0.5387417018909767,0.82246668256955,0.7686360695386857,0.5535395223142422,0.6560947667357733,0.48391127477504675
0.39,0.5343639436177198,0.8205379777257885,0.7656530956341722,0.5538927613941036,0.6476142805651928,0.4748481863047629
0.395,0.5320601195047813,0.8210910211835051,0.7659419432862762,0.5529330602755073,0.6380086025536121,0.4630549250508991
0.4,0.5281524009333587,0.8188213617965466,0.7651866745973412,0.5523918531885714,0.6269259287795159,0.4506861412141371
0.405,0.5224757553368762,0.8149341655674381,0.7622919906592369,0.551476263739904,0.6150296197306523,0.4380118096794729
0.41,0.5179111973438637,0.8144752956293356,0.7596669249438688,0.5480971903234798,0.6028533028159643,0.4234475857790389
0.415,0.5141948326120445,0.8155118744390326,0.7569726565537312,0.542844722179298,0.5893068875428589,0.4075773310163533
0.42,0.5083912424506772,0.8126724817659324,0.7522364123479617,0.537413911775513,0.5738847741591989,0.3928709747516468
0.425,0.5009991175431625,0.8080005227799638,0.7475216943252928,0.5307413753102957,0.5588754134538486,0.37967369617493274
0.43,0.4956458355552846,0.8067020943652826,0.7461729107194104,0.5209459379195461,0.5467422435479893,0.366438202304869
0.435,0.49311829066499274,0.8061898053341563,0.7463514830177034,0.5092510538316656,0.5367114504898763,0.35335272374881277
0.44,0.4908222689503747,0.8009630875560113,0.7441255915864963,0.4979300127813481,0.5263274366034236,0.3419322434035451
0.445,0.487343298965289,0.7941037370522107,0.740495271371169,0.48644117549123134,0.5149616951968291,0.33177514584524787
0.45,0.4831652088318936,0.7925800634429374,0.7387524489755437,0.47347568303232385,0.5036868324693224,0.3212779342669305
0.455,0.47844105315182817,0.7953826670958993,0.7378286488172642,0.46051781310374607,0.49311046412664145,0.3106327095574159
0.46,0.47394212204518793,0.7968142560189909,0.7348537227565926,0.44955729371681774,0.48315795529583133,0.3009545579331108
0.465,0.4718006832427801,0.7967055002826392,0.7312181375601096,0.4395835358331753,0.4737900368632542,0.2917440778649057
0.47,0.4716939075127724,0.7973108182126024,0.7296832696189476,0.4288898449153115,0.4647980382192238,0.2821582992077909
0.475,0.46954837495351437,0.7955271163406927,0.7286146943086056,0.41851601154949,0.45611456630754177,0.27319694715877907
0.48,0.4635897950674849,0.788397663539445,0.7251406776659992,0.410241830646156,0.44858072249158426,0.26591558446567093
0.485,0.45775031713957914,0.781239920204323,0.7207958081013266,0.40357207658702066,0.44275363756067937,0.2593803103139237
0.49,0.45561380608870694,0.7806910110398462,0.7183827796778338,0.3973967565467357,0.4374412307908956,0.2528990125234065
0.495,0.4556629625803137,0.7843761762744292,0.7166424761042779,0.39204837484543426,0.43172910948185084,0.24799423416957642
0.5,0.4560249829536698,0.7857934190765935,0.7133485939302093,0.3875290648491056,0.4274204303770329,0.2456588036925415
0.505,0.4583424798471131,0.7843558289776835,0.7101826931132289,0.3826419327518655,0.4262850020339023,0.2440939998706315
0.51,0.4628036376886145,0.7831123084885764,0.7095548886752406,0.3777051734433321,0.4260960002162936,0.2416019420420431
0.515,0.46517763052916367,0.7819349638713518,0.7100408311012624,0.3748357794165823,0.4233918468160026,0.23921163104261056
0.52,0.4634620784242895,0.7798275962205486,0.7094062145640531,0.3740115689124109,0.419130081147028,0.23817388313910487
0.525,0.461895704572884,0.7786960506345687,0.7086071815506015,0.37250554187850093,0.41708334514564144,0.23749259252582958
0.53,0.46376830283437426,0.7791617817270278,0.7088892505883493,0.3695566235479859,0.4174837361216193,0.23614000340670144
0.535,0.46585194917671974,0.7781445636712196,0.7086633104133947,0.3676156755819298,0.4172046560110654,0.23513204286716907
0.54,0.46452488792232227,0.774911949452754,0.706808735325425,0.3677335595594535,0.4156667813382215,0.2354016743533623
0.545,0.46176512322001434,0.7732927775130128,0.7053561784838621,0.36795401499208485,0.4153300757715927,0.23609638788241455
0.55,0.4604985852317825,0.7745429109190717,0.7058691921402666,0.367464178643278,0.41654887819291886,0.2365992502439803
0.555,0.4595603523212077,0.7749891621771429,0.7068921987120285,0.36794644806227167,0.4172254266723073,0.23770009216834645
0.56,0.4577095155189319,0.7733552742617917,0.7073649611165526,0.36963521679176803,0.4176047666876087,0.23952920328555521
0.565,0.457178927168374,0.7728364487737551,0.7086127412323362,0.3704225083747587,0.4201479165708072,0.24102225103462885
0.57,0.45901153866929784,0.7740470831357251,0.7109985055089898,0.3699775085109252,0.42438243931808756,0.24235518875760656
0.575,0.46020442946398515,0.7741135697523801,0.7126606091111151,0.37047935419427636,0.4270391327961574,0.24503117974477603
0.58,0.459289336758924,0.7737939776570519,0.7131298079460419,0.3724128918249934,0.427756509489826,0.24888115110798537
0.585,0.4593309890603176,0.7764233006312451,0.7141948185211796,0.3738693882316673,0.42968860375099266,0.2520510816296126
0.59,0.4619813493182614,0.7794499212465621,0.7161663697175765,0.37456005895829386,0.4338910821818285,0.25444719609895283
0.595,0.46429303812499756,0.777311594554968,0.7172527343557937,0.3762347078458102,0.43786802846820455,0.25792279128367757
0.6,0.4647380855899356,0.7729633984013482,0.7170451219762466,0.37882890101907946,0.4403743217738636,0.26266186258315083
0.605,0.46642738933024597,0.7751520939218912,0.7167277055931723,0.38054093205026174,0.44320346351154005,0.2667962645023177
0.61,0.4709289028351277,0.7835265860041415,0.7162726677890133,0.3817747353836012,0.4474631500828499,0.2699803882136276
0.615,0.4747522673759915,0.7884248514820538,0.715455851929126,0.3845724246646243,0.45209648999928104,0.2738982155854594
0.62,0.47542158477540586,0.7867026424463093,0.7162318012620564,0.38829638642147457,0.45667680211812767,0.2788901606296673
0.625,0.4754921257056215,0.7855393010965251,0.7195093788259389,0.3904186531806202,0.46196547975944524,0.28349013054785743
0.63,0.4773618151012154,0.7886424504920647,0.7216921255598064,0.3913094353490302,0.46733342267479866,0.28757054014844274
0.635,0.47945083130259164,0.7908577714116565,0.7196984095889213,0.39364211460558196,0.47111421773067447,0.2925757310263263
0.64,0.4803588875131861,0.7891218444656538,0.7168652516548795,0.3974452415690242,0.4737345255768737,0.2984304654533325
0.645,0.4815131782781318,0.7872836705971646,0.7179819774659971,0.40039160652186057,0.4773301344439474,0.3034984044912591
0.65,0.4831349673463159,0.7871375158772536,0.721476436882795,0.40250275216524306,0.48236642951696185,0.3077416174296715
0.655,0.48284324527886546,0.7853467034873781,0.7232821046812054,0.4058298175843679,0.48764126417751025,0.31275737794134006
0.66,0.4806224530731633,0.7820304279211481,0.7251575032880793,0.40991306514246667,0.4931420699106741,0.3186262859222594
0.665,0.4799987001228861,0.7822179583624728,0.7310564383425812,0.41228604167922556,0.49972278469848674,0.3237439922608653
0.67,0.48208035230158863,0.7860127549745342,0.7378711347935457,0.4131822162382411,0.50639731237536,0.3277557178237155
0.675,0.4834634464546903,0.7868933487137221,0.7388463521408667,0.4152360791460995,0.5110671822038163,0.3318442794500161
0.68,0.48216970312566343,0.782512355215224,0.7349097679768183,0.4187867315840458,0.5136542353780071,0.33627653904442634
0.685,0.4809413769194925,0.7783003574690366,0.7335942574432801,0.42170724882053107,0.5158646302307291,0.3402732004995549
0.69,0.48260268436086584,0.7778232874375504,0.736938780784387,0.42356122818346675,0.5183932139667354,0.3439430480387032
0.695,0.48619553665818993,0.7780211084182891,0.7391220857100762,0.4259480210677194,0.5207966390996369,0.3479000100348203
0.7,0.4892014965732959,0.7767292880729997,0.7367933201453447,0.4291014865163971,0.5233200920254552,0.3515500021696249
0.705,0.49013194684634415,0.7770905151945223,0.7336337578485687,0.4318115791993093,0.5264380292297373,0.3540932046344627
0.71,0.48841963101091157,0.7811554810344998,0.7329668383972551,0.4342239794031301,0.5294260968902461,0.3564248462923653
0.715,0.4851730585938513,0.7853567786041392,0.7328640022860914,0.4373602989797258,0.5315531005791543,0.35973837611814835
0.72,0.4837038859192238,0.7856932822905047,0.7310152926921806,0.44052864339195547,0.5336413000333055,0.36315163250521937
0.725,0.48572511909530364,0.7830249890185906,0.7290110176405794,0.44231471944039075,0.5364178204760975,0.36495816266661585
0.73,0.4881228464565505,0.7805834345360797,0.7292595167561521,0.4433429224638287,0.5386027949249375,0.36527998556290014
0.735,0.48742976416769956,0.7791793448859968,0.7314014895717574,0.44524387509794955,0.5387101171846239,0.36539124171098264
0.74,0.48568796453512586,0.7770196591599072,0.733625409444868,0.4478469856649859,0.5374564826304761,0.36546973628536306
0.745,0.4871246437248637,0.7732534563283314,0.7349795360707152,0.4499076210294074,0.5363863906741985,0.36501044308962616
0.75,0.49091888407907003,0.7705078933286227,0.7354553234182896,0.45144142162413325,0.5354201809500676,0.3643645475070754
0.755,0.4927721599474343,0.7724620826280666,0.7356238550248994,0.45307168554464267,0.5337101796601949,0.36398028059107235
0.76,0.4922467691876196,0.7777341792736739,0.7362880745290158,0.45441670115841065,0.5316617572918914,0.3631639442382177
0.765,0.4928229665902916,0.7793557045971258,0.737226764040589,0.4551192502541509,0.5302094098396916,0.36121968469928056
0.77,0.49547795207642065,0.7746848501719525,0.7371762721527678,0.4559291793933889,0.5291228415859693,0.3587492238147375
0.775,0.49767733410977977,0.7720391716208869,0.7362309409398357,0.4570859176388218,0.5275978008969466,0.3565399152528313
0.78,0.49840434631090247,0.7795468311373213,0.7366023068053542,0.45748966352401366,0.5255745364936021,0.35444399714293545
0.785,0.49932348271365545,0.7904892210009087,0.7395407533651059,0.45695681212739697,0.523342090742413,0.3524379786072242
0.79,0.5011205357487234,0.7910397607812059,0.7432969512518565,0.4570993690410922,0.5209817054199548,0.3512688357277345
0.795,0.5027974852293626,0.7817130523817042,0.7455678823186852,0.4585333930453936,0.5191092199968184,0.35099037382463594
0.8,0.5042420914668135,0.7776056186157302,0.746180065884565,0.4596194928633957,0.5188214535808439,0.3504389283228142
0.805,0.5060895292007845,0.7853391194879518,0.746212555196843,0.4593617621794493,0.5200111619885732,0.34913478130867726
0.81,0.5078747142362029,0.7943904208244138,0.7463801291411005,0.45899999674671516,0.5210358472877215,0.3481115657189136
0.815,0.5092231706264616,0.7964764659913313,0.747192248054544,0.4593731271321926,0.5208121938409596,0.34804289520121545
0.82,0.5113361530831411,0.7988214647723044,0.7487767914737781,0.45938594090462365,0.5200151062507248,0.3482237903219586
0.825,0.5145128185195004,0.8092188725142896,0.7499950032370293,0.45849184098871876,0.5197147148171577,0.34815940846727694
0.83,0.5163630742481892,0.8204364821630648,0.7496846458696317,0.45805241897050825,0.5201243604984329,0.34845892056918465
0.835,0.5155011369413306,0.8210575284495362,0.7488265387692215,0.4588560831616301,0.5210343701635594,0.3494117330118744
0.84,0.5146381393113134,0.8133412639277537,0.7493450030456662,0.4597858918869033,0.5221450921734475,0.35025184545001115
0.845,0.5168075472048541,0.8090684918934822,0.751169846474153,0.46013276376039597,0.5227187776273876,0.3504682362384863
0.85,0.5208383409533828,0.8131370578251798,0.7528525881184595,0.4607784339953765,0.5221771574743735,0.3504787720321315
0.855,0.5237148233537047,0.8208421110494027,0.7542594857055726,0.4620683823426654,0.5211747232574059,0.35067627901097725
0.86,0.5251516905639642,0.8272891836639183,0.7559945096155177,0.4629126817951828,0.520965303829556,0.3511052535242862
0.865,0.5267797883526327,0.8311171570493465,0.7573328063253191,0.4628755840583196,0.5218566292940977,0.35208700972882107
0.87,0.5288927765606362,0.8316362385535657,0.7576814500592196,0.4629158808893353,0.5233179735450347,0.3538080603408855
0.875,0.5307785223961053,0.8289646051553564,0.7586388864604777,0.4634633526443371,0.5250610629121341,0.3555156773054922
0.88,0.5324959838661968,0.8252923843729525,0.7614251404608132,0.46393455946942047,0.5268282361441797,0.356528997725927
0.885,0.5343373399185473,0.8220192964057996,0.7640599398277543,0.4644384452262197,0.5279153313812752,0.35760228001658245
0.89,0.5363929576530239,0.8183208565355727,0.7646072868312619,0.4657489334980542,0.5283314559512597,0.3597806219691378
0.895,0.5395760784689029,0.8150509237744218,0.7651472771028729,0.4674923117109817,0.5296004968353907,0.3625118333660361
0.9,0.544336745523583,0.8156621870979517,0.7685043436828949,0.46854049067813247,0.532869697621336,0.3645545034314316
0.905,0.5480076470626315,0.8203646860290128,0.7730280905521463,0.4691036300259046,0.5370040850528432,0.3661557264067063
0.91,0.5474320735892547,0.8241961928749544,0.7749244608571039,0.47033240454724357,0.5400708606357336,0.36860406336001733
0.915,0.5448190652696249,0.8241711262941386,0.7740185822788219,0.4721765102019968,0.5419242139796819,0.37210827303782057
0.92,0.5460572358339081,0.8236889590973195,0.7730847086798048,0.4736730386140476,0.543841554769383,0.37569908380719635
0.925,0.552027764898107,0.826447738544422,0.7733827539336823,0.4748036056380418,0.5463837845810211,0.3787795713769923
0.93,0.5570721008088265,0.8303879934659959,0.7749165631341667,0.47613260074858915,0.5490626126080401,0.38141773851566063
0.935,0.5579516397158175,0.8313247410929308,0.7787701281602862,0.47742606527225706,0.5514836555131647,0.38363511308141013
0.94,0.558468969293086,0.8290145100508779,0.7846913293429137,0.47844985925294864,0.5536301075961496,0.3855814450997959
0.945,0.5623648549133734,0.8263695818376303,0.7886625501559964,0.47997530510427144,0.5555980432728173,0.3878432631384084
0.95,0.5673709226877368,0.8255900742849429,0.7876720632817084,0.48223465624209383,0.5577744268795906,0.3906696942530237
0.955,0.5700707586410911,0.8275392975261981,0.7849032305011558,0.4839321957762412,0.5604377439456895,0.39355433552703856
0.96,0.5715282595293611,0.8320062430215929,0.7855067649838242,0.48457772014828504,0.5628412426925514,0.3961402396445189
0.965,0.5738095853773263,0.8364454094230915,0.7892633847415059,0.48584477383734637,0.564035144957241,0.3986093712122934
0.97,0.5754473249861766,0.8373703265160234,0.7922454215450545,0.48864626710763576,0.5648486577289444,0.4008680900964945
0.975,0.5751164527757601,0.8350358167149895,0.7937174542370031,0.4911142538428933,0.5672125602391117,0.402589447061071
0.98,0.5760711714462327,0.8340178151130585,0.7960980792691146,0.4917064819553774,0.5710911143790075,0.4042330894206052
0.985,0.5817395556114409,0.8372193901272581,0.7993989349986634,0.49194587469565587,0.5742321414199106,0.40653998284219695
0.99,0.5894137263631511,0.8419265462937064,0.8009902551364136,0.4936556869945865,0.5756111815413278,0.409012399103651
0.995,0.5933488161613488,0.843969578253645,0.8005778830933807,0.49588913423040043,0.5767913243841835,0.4106487993938068
1.0,0.5927790004187611,0.843520521929913,0.8009624128760796,0.49717288376357394,0.5789489352008216,0.4120243995765906
1.005,0.5923863997368453,0.8440932846947403,0.8036511382280177,0.4983974865143273,0.5809925039468065,0.41452880282650184
1.01,0.5953391110631998,0.8470662874977819,0.807066885066566,0.5007767833372272,0.5819770156465336,0.4177320258603217
1.015,0.5998093734258165,0.8500929493896818,0.8092949158180696,0.503197724687353,0.5831546256838636,0.41994060575311054
1.02,0.6028005055326418,0.8511671909865463,0.8102014799220262,0.5043042497594267,0.5859253878439437,0.4212389257360786
1.025,0.6043355452432303,0.851839179907426,0.810871009381808,0.5051469272167048,0.5894170752790546,0.4233249470157217
1.03,0.6066189573542335,0.8546985536049145,0.8124717807826869,0.5072260107265286,0.5917737748155524,0.42638466018561183
1.035,0.6107928577272467,0.8589413063869485,0.815215558083937,0.5098393977344764,0.5927763246337244,0.42895357999476613
1.04,0.6159331749941189,0.8611280653243909,0.8177246332327909,0.5116296561743013,0.5938855687186414,0.43091154741283
1.045,0.6207326850839155,0.8605474442712208,0.8186076179507138,0.5128562108033178,0.5963382195229947,0.43365996274631313
1.05,0.6249806726949318,0.8607751720489188,0.8188769382525825,0.5142166383167398,0.5999376284008895,0.4371545125867728
1.055,0.628941896234021,0.8643000445363764,0.8208310639460821,0.5154167300610556,0.6032875845690061,0.43974329425723624
1.06,0.6320940908532952,0.8685192328286083,0.8244725530031674,0.5164890218559715,0.6051400778308382,0.4412653296097946
1.065,0.6337096932280718,0.8698076502832822,0.827610865991434,0.5183298311535695,0.6059900180789526,0.44343041754273166
1.07,0.6344635175589751,0.8690753221385837,0.82952520148276,0.5206726352021454,0.6077813705115812,0.4467476178338743
1.075,0.6358288912506276,0.8696976982596392,0.8314164014529307,0.5220534439664393,0.6112867361416606,0.44978567548554504
1.08,0.6376264889980429,0.8717150678842516,0.8331539329578614,0.52278317714336,0.6148299525920222,0.45181374296752025
1.085,0.6380623164203602,0.8720979922317077,0.8331163570983561,0.5249384117454576,0.6167607096368968,0.4536427859345657
1.09,0.6367851073418528,0.86985842032994,0.8315579307378403,0.5284321264011158,0.6178345024087901,0.455644220112559
1.095,0.6356612421687502,0.8671497807409176,0.830468572953956,0.5306022680450182,0.6195466232378086,0.45733993675766943
1.1,0.6353944006351129,0.8656820975769164,0.8297410030210014,0.5308740871559131,0.6216332843897617,0.4590358648105441
1.105,0.6337885733304828,0.8651006508546684,0.8272330254274431,0.5319552049887316,0.6232867408642153,0.46161816243705467
1.11,0.6291327784469373,0.8643967941177798,0.8229322439556036,0.5348861148740536,0.6253571932465594,0.46481529248425957
1.115,0.6230897075895269,0.8624134336326356,0.8191106021935585,0.5370102745996255,0.6288770700381596,0.4676644237539047
1.12,0.6180235817836476,0.8580008145265065,0.816019470851054,0.5368601063853582,0.6326176939623098,0.47023693481933515
1.125,0.6133916424812589,0.8520261558696407,0.811579475352076,0.5369775753118882,0.6346882935370207,0.47296856834684103
1.13,0.6073064722338575,0.847693991620259,0.8058196221490735,0.5393956914239572,0.6355465744461181,0.4751599532166998
1.135,0.6001153379176336,0.8465292928297923,0.8013502144910765,0.5421246743467831,0.6369001105388385,0.47619966104035516
1.14,0.5936479356735704,0.8459753912573995,0.7986567273005322,0.5429601641982772,0.6386107399444297,0.47711215708081683
1.145,0.5879044039336605,0.8432565172267905,0.795085929700084,0.5433682355362012,0.6392384040320289,0.47867475953201455
1.15,0.5812677390255103,0.8391134378969605,0.7895322199117579,0.5455023958961316,0.6386992252225755,0.4793336494424261
1.155,0.5736113997933009,0.8352277827649921,0.7842522472626172,0.5482416487660586,0.6377675238276381,0.4773203372472035
1.16,0.566687094304976,0.8309649986955739,0.7808274282770932,0.5493506858953353,0.6357640906629274,0.47334831108671366
1.165,0.5613300044298019,0.8256815508593411,0.7777799185561464,0.5492919704652927,0.6313209457792391,0.468774172083817
1.17,0.5563334967746141,0.821255984489677,0.7734560313245316,0.5498696465798778,0.6247532505820502,0.46274567429213337
1.175,0.5504746129295379,0.8190979085344953,0.7684020492407363,0.5508339683605925,0.617246329664758,0.4538340881323278
1.18,0.5440560429429319,0.8174687955593566,0.7638137125228414,0.550596459292637,0.6083995347284189,0.4428592318952174
1.185,0.5378998173954997,0.8147302606124989,0.7599290084394409,0.5490360434799122,0.5969996776374462,0.43134891978825124
1.19,0.5320306130764815,0.8121271630245204,0.7565894890596052,0.5471476305277904,0.5836534465568322,0.41880847471185834
1.195,0.5261346263732425,0.810453850461036,0.7535266488288261,0.5447199520970556,0.5703478326263276,0.4043029221415152
1.2,0.5206474150494932,0.8075432978486319,0.75003688873,0.5403459820922443,0.5578086020145847,0.38915588844098825
1.205,0.5164618047791069,0.8023242248165214,0.7459988859522438,0.5333050089714503,0.5452657818283061,0.37525160000013635
1.21,0.513505133745436,0.7977513007207088,0.7426268326257678,0.5240980187031395,0.5323317708625508,0.36212822707642295
1.215,0.5103335806589216,0.7962130053598334,0.7405740391926768,0.5134958305168722,0.5193092380682318,0.3484356014548909
1.22,0.5057832342449401,0.7954885794916203,0.738401641030724,0.5019442566431257,0.5061969744666799,0.3347502636039123
1.225,0.5006916002757943,0.7927288755218674,0.7347669108511484,0.4896007438128335,0.49302403875401457,0.322301947650156
1.23,0.49697718669982227,0.7890316122835463,0.7307855642043086,0.47651157769412045,0.4805715628272028,0.31045890890104305
1.235,0.494942394556498,0.7866145518107162,0.7283243401919701,0.46302030833616437,0.4693781716893568,0.29813557265420426
1.24,0.4927396795987752,0.7848240403127961,0.7274556033133587,0.4499302514797334,0.4588047388747516,0.28624668326713393
1.245,0.48905957980621817,0.7824358154894889,0.7273851677185311,0.43779795131954474,0.44829558953224913,0.2762135007335217
1.25,0.48507532369912004,0.7807303441737411,0.7280212645722854,0.4264186511844295,0.4385067786797448,0.2674130004448473
1.255,0.4827254048097331,0.7808705283332023,0.7287468218345484,0.41559951400246303,0.42993191122892577,0.258502116448928
1.26,0.48207903251079964,0.7811387452502704,0.7277984526923907,0.4058215748155877,0.4216624008398287,0.24990638022186312
1.265,0.4815666031054804,0.7799057860214305,0.7249711409636602,0.39736603965111494,0.4129687848380035,0.24272888989449087
1.27,0.4801062925155991,0.778562412389246,0.7228024452377646,0.389566358217911,0.40495138607527315,0.23652501423735478
1.275,0.47793404528739863,0.7786519715183329,0.7229948403655662,0.38188332356130794,0.3991107942942717,0.23029741149884217
1.28,0.47590854654496484,0.7788180680676707,0.7238483416839819,0.37492652450233693,0.39527330754914103,0.22445160809873566
1.285,0.47491398722004835,0.7773380157743429,0.7232193976315714,0.36940045923965353,0.39230826643478706,0.2198529128212366
1.29,0.47538746626065204,0.7752740519898467,0.7216581252578924,0.36486740148676267,0.3898898101788962,0.21616298085626737
1.295,0.47663007528704404,0.7746739056878658,0.7205755292614865,0.3605964940622946,0.38813814793722845,0.2127685516701763
1.3,0.47713676216460504,0.7756541363922097,0.719733430769197,0.35679752913068,0.3864155635992431,0.21009215127974812
1.305,0.47627143303635744,0.7770673658217776,0.7186875490745709,0.3539611216311783,0.38395324794957064,0.20852819444861986
1.31,0.47503292751806436,0.7781574501476315,0.7184327826675269,0.3517864818494505,0.3811578924231103,0.20738595962986303
1.315,0.47466964394840383,0.7783333686228338,0.7195727851090402,0.34977029388297787,0.37914859018916963,0.20614362068083036
1.32,0.47526764589324794,0.7772290060255381,0.7209497276128088,0.3481074441780504,0.3783730899338954,0.2054190205575167
1.325,0.47617491001247786,0.7758130276000054,0.7217679889583132,0.3471402491354672,0.3784667392531232,0.20568127650133433
1.33,0.47700664228963235,0.7757109788981108,0.7229142102636498,0.3466554688958329,0.3790072536749506,0.20641989148455564
1.335,0.47772285754258503,0.7772139210218517,0.7248059583126985,0.3464111442496079,0.37972330062779647,0.20739771921577518
1.34,0.4784467405592449,0.779526729247619,0.7263112299346761,0.34655815087366565,0.38035235901368275,0.20917960788252934
1.345,0.4796194171456852,0.7823023584483523,0.7270344548883789,0.3470227838926673,0.3808292528488095,0.2117469659074782
1.35,0.48166727873047943,0.7850667729937696,0.7281741977290637,0.34738035645046306,0.38139276673429534,0.21421954591455805
1.355,0.4842942756561021,0.7864692202585113,0.7300466146313619,0.34774603175050417,0.3823331517305774,0.21648205108874838
1.36,0.4867950896409265,0.7864297693421578,0.7314076493598032,0.3487949773464237,0.3838986922972172,0.21936135870804177
1.365,0.4890831951981228,0.7873970337142115,0.7321339350898535,0.35058208481445136,0.3863182497417095,0.22277934444301098
1.37,0.49156717020443763,0.790897932360312,0.7336817663210432,0.3523814185754026,0.38945900076499873,0.22557728590775206
1.375,0.494093837354116,0.7946963444418155,0.7359985997751363,0.3538896870214739,0.39266055235803987,0.22757413045191563
1.38,0.49606795525691566,0.7960384550353482,0.7370673189421743,0.3554883857457499,0.3954078390952383,0.22995949572876842
1.385,0.4976641437167079,0.7955533169214483,0.7365002048527239,0.3572446473775802,0.3979362282078265,0.23331279777471903
1.39,0.49983256671896814,0.7951970042234532,0.7364403649229874,0.3588438062341891,0.4007883342013885,0.2370374074239857
1.395,0.5028486990620905,0.7948797782556791,0.7378350891372771,0.36051558689140806,0.40420450288360005,0.24095154213780992
1.4,0.5057202446952417,0.7941191861447557,0.7389904321297083,0.36280109678008293,0.4082897548068527,0.24557950633318565
1.405,0.5073510886281635,0.7943194565677719,0.7390330622494267,0.36546222422395774,0.4131008278727969,0.25070425665971496
1.41,0.5077512628874278,0.7962331318290576,0.7396857141666116,0.3678126666322064,0.41815484160737465,0.2554488313865239
1.415,0.5078568714251789,0.7977956450803201,0.7421058500832428,0.3699239717833057,0.42268886724467286,0.25988622830841135
1.42,0.5083753416792576,0.7974482024263942,0.7446491992713459,0.3723186096365038,0.42686354555091427,0.2648425576383803
1.425,0.5089240450003298,0.7968483408524873,0.745326516431915,0.37485005004718086,0.43171331230215,0.2701879203285821
1.43,0.5085502639415808,0.797611288087444,0.7444507874985467,0.37712045452107124,0.4373864458412085,0.27507948184879494
1.435,0.5073868496852632,0.7984408805574487,0.7437289748938198,0.3794968259511421,0.4426133036266385,0.27971675604226975
1.44,0.5071731209712272,0.7979682014967935,0.7443394850980751,0.38245838020293427,0.44661560444309556,0.28505055025146436
1.445,0.5091610829237742,0.7971136627991081,0.7463627345648791,0.38556481436195167,0.45032063035645226,0.2909209779109731
1.45,0.51206526114725,0.7965608889233604,0.748567128563198,0.38828051603079733,0.4548139532276501,0.29620826271874706
1.455,0.5135293069049504,0.7957092532885428,0.7489201076886345,0.3909939292864799,0.4597119141305135,0.30061041383833337
1.46,0.5132130637631601,0.7957911752767,0.7470181515929746,0.39404003686409395,0.46399050356036076,0.3046542054470065
1.465,0.5127113590545241,0.799270638970111,0.7453321225441164,0.3968161175401124,0.4674530472660869,0.30830598768083156
1.47,0.5127905199569015,0.8043273567837409,0.746016433400299,0.39909924753445286,0.4705470645700899,0.3112243483746096
1.475,0.5127750224547897,0.8054261163105823,0.747584007432543,0.401843973878414,0.4736139960926356,0.31403650732421184
1.48,0.5125126416269867,0.8016906804019832,0.7473475972483802,0.405304974492755,0.4769782883901834,0.3177405147228608
1.485,0.5127531272662617,0.7990190214941159,0.7459729662377921,0.4080460499543176,0.48087817080920714,0.3220843565963088
1.49,0.5135529622948071,0.8012513572521435,0.7463429265558075,0.40941883538394164,0.48480969351753894,0.3259079209360351
1.495,0.514316997784568,0.8049899958977126,0.7486460835017641,0.41115210357134335,0.4878996457332475,0.32875664632804347
1.5,0.5152067736638557,0.8060333020062154,0.7501415508646858,0.4145771037771726,0.49024951335003963,0.3309550836971652
1.505,0.5165306816874324,0.8053035785896087,0.7496940542067467,0.4182082468807083,0.4927748479623958,0.33254355998510804
1.51,0.5174600887753765,0.8053964851738307,0.7492010493546066,0.4202321098224668,0.4954725187163444,0.33330304628479107
1.515,0.5176472313893273,0.8063850950867669,0.7501665210762063,0.42147854158328607,0.4972303454893864,0.3334622082981405
1.52,0.5189145603709535,0.8075978366957605,0.7517421583056345,0.4235875928344907,0.4977425090967015,0.3335035286165799
1.525,0.5224269740063275,0.8089209814162841,0.7527307043276902,0.4261173512036623,0.4981611382791219,0.3336628888976823
1.53,0.5256626115378681,0.8090080523399203,0.7532218512648725,0.4279273385965284,0.4992720193748374,0.33408089858426787
1.535,0.5258625178028199,0.8070964763306963,0.7537706294480148,0.42954752191013584,0.5003663012719106,0.3347524465522716
1.54,0.5250007171253258,0.806519003722052,0.7547663512296982,0.4316217980099383,0.5005904647642084,0.3350897561839919
1.545,0.5268897316343265,0.8102948859074566,0.7567283369413706,0.4329503178041375,0.5002385777153197,0.33454553400085174
1.55,0.5306097845575599,0.8141685555841148,0.7595832313058316,0.4328138877961706,0.4999996652297949,0.33377236252027287
1.555,0.5319537658317929,0.8118644510130177,0.7618054990736197,0.43324916628759014,0.4998745249384004,0.33385181699961974
1.56,0.5306443719383113,0.8063372593005289,0.7619243138369558,0.43598510557183545,0.4994927333592229,0.3343625346671754
1.565,0.5305543534462749,0.8063737085389404,0.760709658960571,0.4389992139805935,0.49879196281627197,0.3338740491653938
1.57,0.5329198572096026,0.8123101727671963,0.7603689822074242,0.43940956455224306,0.4978747385005663,0.33240881385986265
1.575,0.5349799621851596,0.8157669885930855,0.7617954858344269,0.4381265912751339,0.4967316099584314,0.3314574332823667
1.58,0.5356328941732051,0.8142011872284768,0.7639047406571673,0.4381435273900055,0.4954952277068284,0.33136549179634667
1.585,0.5368992954153392,0.8141370361407594,0.7653764578202136,0.4396046952794955,0.49462598134103397,0.33087038262200114
1.59,0.539280694145407,0.8179808740748703,0.7659275153390513,0.44027172674464926,0.4945547519105682,0.3296094284527694
1.595,0.5410361750490393,0.8195785051357682,0.766213390565357,0.43994686188024124,0.4951481005708548,0.3288231315478564
1.6,0.5424249697770647,0.8163379482263374,0.7672478356357845,0.4406920709441993,0.4955491322725145,0.3289735868945439
1.605,0.5452112550845059,0.8143400872420871,0.769312474295606,0.44298547325218096,0.4948676919003594,0.3288860665994538
1.61,0.5478686556762541,0.8170572627358156,0.7709974069132883,0.44501922969485147,0.4934574258343373,0.32799770244554316
1.615,0.5472934249851772,0.8196865942845439,0.7705260813325563,0.44580327109692447,0.4930329458755173,0.32736431914677183
1.62,0.5454855360687682,0.8193292042242758,0.7685734568559324,0.44609797861205924,0.4946253730584301,0.32765658504377715
1.625,0.5478545414954757,0.8204973756861049,0.7680460013253595,0.44630998212585815,0.4969282559300328,0.32813777001957567
1.63,0.5540830363214482,0.8254880915909469,0.7700885982507569,0.44610135995208294,0.4979744487285595,0.32839239947059246
1.635,0.5576635162985992,0.8290222657329961,0.7722735365271997,0.446049152773405,0.49794326264535044,0.3291741909628466
1.64,0.5560492099194375,0.8276200587524106,0.7722968125041796,0.44721034111165187,0.4985838978102419,0.3307969721892164
1.645,0.5542842089035576,0.8252221404067716,0.7715324908985395,0.44900379252818773,0.5002938730764432,0.3324718002910865
1.65,0.5563699068069512,0.824770024028796,0.772703896505173,0.44977808965936905,0.5018940365709005,0.33389507474133717
1.655,0.5598995526028235,0.8234110376533375,0.7755459293300996,0.44947685781575203,0.5030718529032028,0.3357464107327304
1.66,0.5621640335414387,0.8207522014446623,0.7775560224715734,0.44959226257740886,0.5047098762363993,0.338036488870214
1.665,0.5650251880467397,0.8222297528406665,0.778345876002348,0.45048351806655873,0.5068563655426653,0.3397556265138167
1.67,0.569996879541675,0.8288701996906319,0.7802761929754324,0.45089804111426096,0.5087320539749531,0.3407949077920861
1.675,0.5741896572916314,0.8332074170787558,0.7844647624606502,0.4503568715367677,0.5105462349710314,0.3424567991956366
1.68,0.5752752428579851,0.8314523444420444,0.7887743544716005,0.4500298858383136,0.5127727058759651,0.3453232386281066
1.685,0.5758108741298766,0.8305231480057615,0.7908219756298311,0.4508237238317697,0.5141661317178107,0.34824138174929725
1.69,0.5786463755057742,0.8361733144514328,0.7910155052198471,0.45222554688198824,0.5136297649176018,0.35023539414671123
1.695,0.5820583382390145,0.8429043902364165,0.7912478436531499,0.4534710020805639,0.5134266962058449,0.35197654870321554
1.7,0.5833709710263796,0.8435227297927063,0.7921634336168881,0.4545464605803698,0.5166270748352075,0.35446369768832675
1.705,0.5839982066424073,0.8409897202023854,0.7934285165971894,0.45571118867552846,0.5217000853692936,0.35743045135766216
1.71,0.5868685468436082,0.8420908887705103,0.7954784887836396,0.45712625624479103,0.5242213952643596,0.3600001266442464
1.715,0.5912757157510657,0.8455974651089251,0.7987695094660926,0.4591191814717068,0.5241234825671646,0.362095538256001
1.72,0.5941051523029447,0.8459516914635588,0.8018681208100175,0.4617830421608472,0.5260759131694664,0.3643278844647829
1.725,0.5948886178657746,0.8443386061628437,0.8028139670470885,0.4642579618083035,0.5316633906909777,0.36693199815484595
1.73,0.5964617135169344,0.8468470746747866,0.8025724114944117,0.4654897331611342,0.5366253460718394,0.36951122323069885
1.735,0.6007606906008435,0.853752577855984,0.8045570106819877,0.46581112654639795,0.5378657137448969,0.37175298329843987
1.74,0.6059850093759696,0.858800211418117,0.8098002579079948,0.46669997983173767,0.5380001168454123,0.37394380610101935
1.745,0.6086037877611689,0.8586778439577106,0.8149836528536714,0.46875263837614417,0.5401465693381372,0.37651667780531145
1.75,0.6078115633234382,0.8566416549195738,0.8167392403490856,0.470946348149256,0.5429476388530304,0.37921408925748445
1.755,0.6072088656788208,0.8564313344909781,0.8158314672121912,0.4723399977720754,0.544237447864316,0.38129609824298055
1.76,0.6107827373007891,0.8578561148273881,0.8152934898983537,0.4735807610347195,0.5456685124466758,0.3829530133044274
1.765,0.6174726352574781,0.8593207575949944,0.8163350251289831,0.4759811885838502,0.5498214401579272,0.3857349422574073
1.77,0.6223011910669874,0.8607700230154673,0.8182639616340246,0.47959228356661743,0.5556159847028622,0.39058175453978217
1.775,0.6235105404475751,0.8628424079128815,0.82082200642697,0.4829843739628139,0.5601637821955362,0.39603664461702914
1.78,0.6250041115210402,0.8655368291307368,0.8240416154690017,0.48492003735325895,0.5630063983713122,0.3997994628681339
1.785,0.6298534128225498,0.8685982714043964,0.8268070350352932,0.4856882271385734,0.565505574756246,0.4016771454634351
1.79,0.6353838342114525,0.8716877513725626,0.8279868368204415,0.48657336504241017,0.5679330465280774,0.4034470856200216
1.795,0.6379413260309496,0.8738597636429283,0.8284006890656589,0.48835741070383937,0.5698520960797038,0.4061110028662795
1.8,0.6389040482337301,0.8742138482043258,0.8296847002769061,0.49072575494499254,0.5718343977138884,0.4091148831398285
1.805,0.6418108694909953,0.8733237603687263,0.8318689557322574,0.49302705656758966,0.5745743279781339,0.4121691369829669
1.81,0.6463603192718408,0.8729457232684897,0.8338426948207969,0.4951141796968439,0.5775788925765639,0.4157721982323353
1.815,0.6495969133112414,0.8740249164221505,0.8354177188093432,0.4972153688909308,0.5802842624088276,0.4196594217996764
1.82,0.6508740724859173,0.8758311510382066,0.8372163131688181,0.4993459058521961,0.5830572802266031,0.42269395869434695
1.825,0.6516498193421867,0.8774046582032337,0.8392804029785408,0.5012571517916331,0.5859824521659659,0.42476769264961045
1.83,0.6523770738635314,0.8790436599168129,0.8412365534516463,0.5028421028737946,0.5883195816145542,0.42708077551371654
1.835,0.6531686143932276,0.8815454859209295,0.8429537007284661,0.5042386714547057,0.5900943479165458,0.43013222436475745
1.84,0.6552539469819523,0.8843675566754075,0.843971083441043,0.5055650465370747,0.5924636499244168,0.43310117262192577
1.845,0.6583843293966329,0.8857416981513985,0.8436147895258277,0.5068491596827108,0.5957535594090677,0.4355652901018051
1.85,0.6595109752102596,0.8849160488646899,0.8426187584415333,0.5082321577446723,0.5989643390804725,0.43816455413878647
1.855,0.6574419162637939,0.8831413176313474,0.8427924538002993,0.5099830634034367,0.6017536284537957,0.4412036362294844
1.86,0.6555315788764362,0.8817494209498302,0.8440781660247074,0.5122307047692928,0.6049155262306923,0.4441800998291405
1.865,0.6560237702399102,0.880427946196275,0.8441654533304124,0.5148222101576637,0.6084341694591524,0.44698884010060497
1.87,0.655579822878495,0.8784715738852854,0.842078434217601,0.5174710145855406,0.6111595048844883,0.45006750972339904
1.875,0.6509441225818011,0.8765674251289068,0.8394588854420102,0.5199062835440958,0.6128944486897986,0.4531637215290041
1.88,0.6450546109128973,0.8757995147269745,0.8370850078715392,0.521876584183805,0.614780031268699,0.4554951638915889
1.885,0.6421026087521199,0.8757276280526551,0.8333470966053725,0.5232443756381457,0.6172147643432503,0.4572562714691044
1.89,0.6401864335968631,0.8750116488397454,0.8278628917904209,0.5242617231664297,0.6193193203401768,0.4594150008777287
1.895,0.6349406452206999,0.8731883654344431,0.823131076757556,0.5256033558961845,0.6206758764631336,0.46189233303146865
1.9,0.627264812431133,0.8703775250148277,0.8203926120215232,0.5277896546522711,0.621664802242724,0.4634220582561888
1.905,0.6209223365390043,0.8662562840779157,0.8172341811105336,0.5305064737805558,0.6219753387840491,0.4632733401810822
1.91,0.6152397662442106,0.8610776361327445,0.8117198833586116,0.5328124497206929,0.6206877424865046,0.4616932786260292
1.915,0.6072525898271568,0.8566803037152865,0.8055683994870828,0.5341964880446861,0.6178454341695861,0.4586859553348086
1.92,0.5989072577338065,0.8544767364758695,0.8007462049121077,0.5350787068758529,0.6141419701940842,0.45379104839023165
1.925,0.5944813192491699,0.853243185530435,0.7963542780528071,0.5359512911991897,0.6092080106203208,0.4470532807061744
1.93,0.5921322137890506,0.8508391754474615,0.7915081408844272,0.5364428853108152,0.6019779490348537,0.4389109018189271
1.935,0.5860986857228603,0.8472465923049404,0.7876865859196656,0.535826495504816,0.592501888068078,0.4292476532627776
1.94,0.577221677435223,0.8438479603778867,0.7853111806526002,0.5341456612791715,0.5817846036077086,0.4177686766781391
1.945,0.5729624437406065,0.8405469859958534,0.7816289719604567,0.5320152758011841,0.5703124640218549,0.4050673341082247
1.95,0.5753970878326587,0.835970351278953,0.7752180472590344,0.529369490888738,0.5582382990543374,0.39215130183933916
1.955,0.5770522596389047,0.8302326479399117,0.7691668777120722,0.525292770263792,0.5462184387891348,0.3792421435111175
1.96,0.5719027261571119,0.8254090718339276,0.7664601205708325,0.5192615261075969,0.5345146240758689,0.36610126828078976
1.965,0.5638537529079894,0.823059430664045,0.7654667060412822,0.511733030440142,0.52227788978012,0.353021678718621
1.97,0.5598762639788268,0.8225275356521959,0.7632967989768641,0.5032092460882819,0.5092822685530697,0.3404205147577916
1.975,0.5598165515436693,0.8217461826047967,0.7603950360237729,0.4934895696835743,0.49710369154759904,0.32806462523082597
1.98,0.558218721974063,0.8191992242915617,0.7584174903000405,0.48230663429638004,0.4868942239487525,0.31574659718166015
1.985,0.5530790089922535,0.8155113464080733,0.7566815603251736,0.47011611187299096,0.4773631366134724,0.30401222105412257
1.99,0.5475213632342857,0.8131151592347521,0.7542218773109018,0.4577801191998064,0.4667240297609189,0.2932291049820542
1.995,0.5440046509788972,0.8132964199441973,0.7525306394823975,0.44585277377595,0.4552473704318814,0.28282407443710467
2.0,0.541360786104794,0.8139341328017894,0.7528385712006118,0.4345123008763229,0.44422485627050196,0.2724620975971495
2.005,0.537797403158471,0.8121016193727221,0.7532033243044122,0.4238479695226534,0.43397174688012585,0.26293748322403204
2.01,0.533573310836646,0.8085428827462667,0.7514183214056234,0.41391817934444713,0.4244791251380472,0.2547705500486644
2.015,0.5297746038982095,0.8067221186215405,0.7484568399715271,0.40473903713526277,0.41631028827660266,0.2470419127688828
2.02,0.5265349023243826,0.8073639870715971,0.7463320556093029,0.3963392130202587,0.40925550558718976,0.23890380407675804
2.025,0.5235943012213111,0.8074755210555616,0.7449869765987233,0.3886847532373751,0.40197727671391775,0.23120367806262657
2.03,0.5214422889465293,0.8056223291995088,0.7437247452631274,0.38168836528553607,0.39444849017032757,0.22525162590073863
2.035,0.5208043302891272,0.8043649028198645,0.7431161628089987,0.37552163494772534,0.3885405164531774,0.2208683883374141
2.04,0.5214141853407875,0.8057094871172945,0.7431868031820166,0.37058371845334187,0.3847794923816381,0.21694696130565042
2.045,0.5220955367348535,0.8076301661683205,0.7423525844680647,0.366790233489318,0.3811837035156379,0.21316086503637224
2.05,0.5220289574509959,0.8074665841675222,0.7402849072172395,0.3633724147098753,0.3769376511412132,0.20993009353473932
2.055,0.5214149673530393,0.8059321123298024,0.7391667526337935,0.3599327224074787,0.3741502116457188,0.20740570771833278
2.06,0.520802390604577,0.8052364281137485,0.7402091814125791,0.3571352939135132,0.3739128935107118,0.20554452944779147
2.065,0.5202748850854729,0.8054487326920771,0.7416975151782498,0.35560392728287493,0.3738469866966803,0.20456158067535418
2.07,0.5196724176128391,0.8051252552649792,0.7421844502958159,0.35473890374853184,0.3720931960403783,0.20446529348884585
2.075,0.5192867920581928,0.8039452387201561,0.7426385148750626,0.3535956845502798,0.3705758035346198,0.20477101241132745
2.08,0.5197820249901575,0.8028026789767665,0.7437814223919553,0.3523889752980863,0.37143128521177005,0.2052749918306194
2.085,0.5214403953613883,0.8025352955868211,0.7444514951092754,0.351969278544611,0.37323580217629077,0.20635761648583809
2.09,0.5238908230878357,0.8037983837412815,0.7444279477763868,0.35223534062597023,0.3739720770242735,0.20806504437831203
2.095,0.5265786502762392,0.8067925267453441,0.7459024568443066,0.35236223436540215,0.3748971215493664,0.2098118081943527
2.1,0.529135002777138,0.8102081386835742,0.750309657537635,0.3523729578968199,0.37793894505783204,0.21144257520800774
2.105,0.5313207191321218,0.8119589182603952,0.7562221638704546,0.3531653013301205,0.3816915736328011,0.21361271765677464
2.11,0.5330717330657971,0.8116631549608974,0.7616812350911296,0.3550096384575675,0.3836518244100843,0.216677296645424
2.115,0.5347103869681202,0.8109127887417327,0.7660691764952076,0.3572050499004661,0.3844757783280894,0.22016430792142064
2.12,0.5367277635681167,0.8108107015203948,0.7688585614470832,0.3592289182993025,0.3865332812655661,0.22371574486239482
2.125,0.5391897029199235,0.8110423784456513,0.7694244611870743,0.36112453713897014,0.38997403247466045,0.22757159082081282
2.13,0.541641990388872,0.8115451141284625,0.7689782271704633,0.36278286692788275,0.3935717558004627,0.2317961173628699
2.135,0.5437453542084896,0.8129784048051379,0.7698783138148754,0.3639926107147737,0.3977890642367574,0.23598282259213046
2.14,0.5457060970294122,0.8150889568652968,0.7723072464918218,0.36526764147174995,0.4035295504374568,0.24000415799853198
2.145,0.5478257179885971,0.8164703916484406,0.7742367766710977,0.3675161774983314,0.4092391603817168,0.24418375623330843
2.15,0.5498480567347374,0.8163471661360585,0.7748712258022858,0.3707299927256188,0.4128082091653957,0.24861909471067278
2.155,0.55117347145747,0.8151256207855988,0.7752751956924956,0.3739776607896458,0.41544880415232105,0.2532236721722538
2.16,0.5517672808734834,0.8133200546962288,0.7756557033533814,0.3768107763198593,0.42027111094704234,0.25838325842283677
2.165,0.5524479840528236,0.8115096400442934,0.7751483471188639,0.37968784881801915,0.4274567256638458,0.26453317569570123
2.17,0.553976521964405,0.810817606723638,0.7742498927741045,0.3828358173554677,0.4339912826502618,0.27111321404034
2.175,0.5561266484243543,0.8115299306438477,0.7743480624148852,0.38571028186940665,0.43818815968714747,0.27700541266579803
2.18,0.5580514389585335,0.8118944451483566,0.7749756290875688,0.38798060171915255,0.44174697298951726,0.2820476707126414
2.185,0.5593317641825668,0.8104271739266762,0.7745382359570598,0.39023512257659054,0.4469206182072334,0.28716220680230914
2.19,0.5600869704119212,0.8086552220804241,0.7733710895328364,0.39319785219034836,0.45374538801738484,0.29297770463330014
2.195,0.5602138687773941,0.8090856387239593,0.7730752481319437,0.3967695071702229,0.46066746503225436,0.2991652473306637
2.2,0.5593699472128293,0.8111194703900583,0.7734837755527313,0.400294719654477,0.4665057255013692,0.30507686178901466
2.205,0.557912355049331,0.8118663777573593,0.7733189138871229,0.4034253733374014,0.4712626253703007,0.3103142740660101
2.21,0.5570632030888257,0.8107491676183014,0.7729275970758882,0.40628989782298575,0.4757397529618778,0.3148261257772868
2.215,0.5576765682464956,0.8101703336868161,0.7732697597172165,0.40898642057910384,0.4805971039660596,0.3190518367423562
2.22,0.5593053834283037,0.8111999178879137,0.7734277640037988,0.41136133507372796,0.4855783037925674,0.323669646320645
2.225,0.5607911296049433,0.8116594513913165,0.7723949312852075,0.41341884114550315,0.4899243289292246,0.32869955889797947
2.23,0.5613584585580863,0.8097604557809306,0.7718776200307572,0.4156292439354702,0.49354206493104236,0.3333442472959055
2.235,0.5609867395003895,0.8072538867041157,0.7737785817782011,0.4184362378501376,0.4970004317939565,0.3371543373802074
2.24,0.560236188676772,0.807141811510525,0.7763616437267324,0.42154288588220507,0.5003216141002625,0.34061139400983104
2.245,0.5598869959104501,0.8096914821098207,0.7765843162495543,0.42422187881539924,0.5028617780374903,0.3440402624977007
2.25,0.5603170038775847,0.8126474330741182,0.7748521704803795,0.4264454645872953,0.5046212596873214,0.34684529744529924
2.255,0.561220099243817,0.8148797430081874,0.7738895889330015,0.42903477086425296,0.5064747442703884,0.34849982989923367
2.26,0.5623041161478805,0.8180127862600396,0.7743686544433687,0.43233847215774096,0.5086947693530299,0.3494221476578986
2.265,0.5638729914750185,0.8239529349571209,0.7751319023840166,0.4355056590583447,0.5103881979913365,0.3501814751687713
2.27,0.5660355578468862,0.8318933141487335,0.7761022231705886,0.43766344912386146,0.5108700898466039,0.35068742156313787
2.275,0.5679162043000024,0.8386378961220481,0.7775411665843694,0.43910405444497846,0.5105713987417628,0.35080529506002633
2.28,0.5687376780710829,0.8414982024006051,0.7782245222263378,0.4405724068882328,0.5101768645739281,0.3508829756293491
2.285,0.5691749728336439,0.8402749362623754,0.7776668789241984,0.44210315750773826,0.5098534217457708,0.351025750966533
2.29,0.5703041607827328,0.8369701640095346,0.77805526578225,0.44343825032956435,0.5096801706361859,0.3506964143321008
2.295,0.5716611805344091,0.8345146648657592,0.7807056772162193,0.4448570389141637,0.5098329155160565,0.34959727147411646
2.3,0.5719213886600755,0.8352153537496616,0.7831123522567526,0.4465545280415865,0.5099562180501508,0.34815340477130946
2.305,0.5712354227164212,0.8389609204272555,0.7829463305118354,0.44788731567212414,0.5092761567799033,0.3467601772729684
2.31,0.5712359795240067,0.8430003701025519,0.7821298696159152,0.4483652474479904,0.5077145269826087,0.3454350642200932
2.315,0.572839077101328,0.8447152718559897,0.7832230965981328,0.4487191698742388,0.5061008489502855,0.3444046828312371
2.32,0.575569287682773,0.8442700020555809,0.7848565922724317,0.44977750536094246,0.5050216202662496,0.3439567190806336
2.325,0.5787897918435189,0.8432496059886531,0.7848459248750562,0.4509663135857376,0.5042456964671405,0.3435503939759362
2.33,0.5819300951197237,0.8417985528026116,0.7846607383591158,0.4512516141858236,0.5035117542879175,0.3422981553500632
2.335,0.5838370097138014,0.8394149808960933,0.7863009025193693,0.45092876756861067,0.503065919402949,0.340510476510214
2.34,0.5838080331787019,0.8374605599084874,0.7878377986081002,0.45106159447459404,0.5030477908322045,0.33946085180494606
2.345,0.5831322567732783,0.8376662312234833,0.786916009350787,0.4517292689182574,0.5029720653832398,0.33943391984781185
2.35,0.5838431981030555,0.8388386933598106,0.7857848762741193,0.4522826512129838,0.5022785396582374,0.3393914494110042
2.355,0.5861780386328656,0.8385987054844808,0.7877083350391467,0.45276136095194525,0.5011384474113818,0.33880531318095664
2.36,0.5888890406018156,0.837685771891947,0.7909582030745463,0.4535142313491234,0.50042350624747,0.33839376650200675
2.365,0.5913702518656321,0.8384822112194272,0.7916911446181424,0.4539513743911612,0.5008546831505686,0.3387198305789185
2.37,0.5935282886530618,0.8401398187175074,0.7905957805044656,0.45333540263774713,0.5021903179558241,0.33942378030006554
2.375,0.5945250623040913,0.8401154694932164,0.7913045785335332,0.45243129602813315,0.503410124155779,0.34019490772676936
2.38,0.5941466284338593,0.8397375398299973,0.7939658403825677,0.452702543499493,0.5039452593682495,0.34124490445369604
2.385,0.5945111242524018,0.8422618570721158,0.7957028057581556,0.454090430134905,0.5044602520330765,0.3425039271264253
2.39,0.5975139350766102,0.8458259019483468,0.7961606371671556,0.4551608499375005,0.505861485020382,0.3434982405098764
2.395,0.6013579341434092,0.8453512753611389,0.7975185996464245,0.4553041448947266,0.507807079933953,0.3442517350619942
2.4,0.6029079431987037,0.841735882100382,0.7998398335702507,0.45530467059032903,0.5091027707561561,0.3452635502708813
2.405,0.6028643632612621,0.8413467524817705,0.801057107186347,0.45582019066129487,0.5095064115578676,0.34653622731008044
2.41,0.6047713948693121,0.8452593494554195,0.8010524709267853,0.4566927113038013,0.5100878283543504,0.3476715458253875
2.415,0.6090178828702384,0.8474233573147778,0.8016936052833873,0.4577578768933677,0.5116388696129667,0.3488520290568531
2.42,0.6120718811305917,0.8455285379776182,0.8032709056401172,0.4591013441385305,0.5137479442340642,0.35062448827304
2.425,0.6124100960410607,0.8447515224546827,0.8043877850055051,0.46047594765782945,0.5157366953139654,0.35282112894591994
2.43,0.6130223296387906,0.8476299524594082,0.8048369551852204,0.46146589320048564,0.5175760984962833,0.3547855608436275
2.435,0.6164126893303814,0.8494121749532169,0.8056060496752351,0.4621936951981854,0.519507017867733,0.3565167125425301
2.44,0.620719487062038,0.8476997052754089,0.806823163822952,0.46308607689624515,0.5215007195808339,0.3585354816014408
2.445,0.6228939805518218,0.8476152126575669,0.8082405579920597,0.464174614258205,0.5234024965836918,0.3608268265540533
2.45,0.6228567637796563,0.8521122041534462,0.8105195112449586,0.46532858795133003,0.5251060396170504,0.36294058064235746
2.455,0.6223667710666996,0.8558444565768238,0.8136588092297117,0.46677083115492213,0.5265968197091819,0.3649053444556219
2.46,0.6221748119763689,0.8547118074749579,0.815819735046219,0.468637173498426,0.5282827360842812,0.36708925343012677
2.465,0.6224947106650788,0.8532549203089206,0.8161449965202722,0.47046662429240677,0.5308825822333765,0.3694329040936396
2.47,0.6243687270401295,0.8559162769964511,0.8167693844221563,0.47178782477511094,0.5343377147674242,0.37166486229009704
2.475,0.6283205772858831,0.8588232397217817,0.8194351826044823,0.4727421823107091,0.537493004061835,0.3739096912459452
2.48,0.6328796703559143,0.8576542130404713,0.8222809485442115,0.4736355306740242,0.5397361668518545,0.3763382506433793
2.485,0.6362374655480738,0.8564287006492928,0.8228693771055647,0.47452109909499046,0.5420510766180193,0.37870399076142447
2.49,0.6384215811839477,0.8602721533073963,0.8222699521046721,0.4756613456155091,0.5452054682226198,0.3808990194330609
2.495,0.6405006240300712,0.8654971291868478,0.8230546294925991,0.4775733119716775,0.5479480421912724,0.3833623310820711
2.5,0.6427534217698291,0.8654733484959789,0.8252390913160034,0.48012713423883063,0.5487929843179211,0.3863156674406277
2.505,0.6450064252971428,0.8619025403421797,0.827394510192472,0.4824614110248687,0.5487701706851753,0.3892900741698708
2.51,0.6477259221956205,0.8620574776428199,0.8298703206852566,0.4842186295612815,0.55027734278435,0.39193826893362715
2.515,0.651235635200077,0.8676960999965629,0.833513042372765,0.48592239811355736,0.5536484840507707,0.3945029785076029
2.52,0.6546217866595739,0.8736443599870104,0.8368339209182768,0.4878074451594283,0.5570243976236577,0.3970625424775966
2.525,0.6569678187413533,0.8755182329454496,0.8379903632625993,0.48942494306397,0.5593899840474882,0.3993097208843108
2.53,0.659116510657855,0.8738091824925602,0.8383311265555305,0.49077112877695256,0.5615249092543053,0.4014389169113477
2.535,0.6625227955511119,0.87209517607294,0.8404903263045838,0.4925085935847219,0.5639729953894386,0.40406708665886404
2.54,0.6666199218082661,0.874181637271159,0.8439326359636529,0.4946048704080596,0.5663401067830751,0.40695212681379006
2.545,0.6692847938253597,0.8801706477607688,0.8459021974953082,0.4961128243571432,0.5688783703983928,0.4091983365984371
2.55,0.6702831704287251,0.8840302495292606,0.8461980226717639,0.49684898826983626,0.5725693906431971,0.41107434158346784
2.555,0.6721594641779693,0.8801428171459316,0.847445863985276,0.497904280252464,0.5770321834721882,0.4139588794920145
2.56,0.6764521729440729,0.8733707359972067,0.850593769974601,0.49987343480741425,0.5802714033864806,0.4179749614964018
2.565,0.6808926743174638,0.8751073767654135,0.8534407887119181,0.5019755352974531,0.5813150110446494,0.42148801262901114
2.57,0.682481311024817,0.8867884668452795,0.8542500049434473,0.5036274368144381,0.5816064416427252,0.4236587099392331
2.575,0.6819425452708802,0.8961305939387285,0.8539794443797614,0.5054816640349684,0.5830569751380834,0.42565404995535217
2.58,0.6821824395657802,0.8942785133547526,0.8538965344203641,0.5080233584988789,0.5859608906999498,0.4284670426639616
2.585,0.6830261376909785,0.8877113203573471,0.853328551675012,0.5103848360651354,0.5894292198998653,0.4313875559130666
2.59,0.6812222091665964,0.8866689900328718,0.8511871083248478,0.5115898697045472,0.5927329369593034,0.4336753678984478
2.595,0.6761236627982592,0.8901289521999466,0.8479828688186328,0.5121190790823835,0.5955735821487966,0.43596669775198815
2.6,0.6713521796280312,0.8905372171615545,0.8447014455461197,0.5133301629599355,0.5979073828964462,0.438817884347319
2.605,0.669211511699585,0.8866639832922502,0.8408679341366075,0.5158241495963338,0.6000914212416703,0.4414850887216508
2.61,0.6672925589230291,0.8824517501194972,0.8356151834241977,0.5189532120618778,0.602665844520613,0.44345243477737023
2.615,0.6630348413939149,0.877871811453425,0.8301537589104515,0.5216202837389607,0.6056726192464835,0.44571829527601553
2.62,0.65787937884345,0.8704095873046491,0.8269887027831347,0.5233526802022743,0.6085564239769905,0.44917276985675403
2.625,0.6535665633113568,0.8628356606065507,0.8261091113986067,0.5247819792497795,0.6107818301292687,0.4528649761170012
2.63,0.6478779890423457,0.8604986249052394,0.823938841837415,0.5268247515523989,0.6122213948528028,0.455216004302193
2.635,0.6385170116805412,0.8619050025292243,0.8177163526864994,0.5292256626425703,0.613038982722228,0.45602956430609676
2.64,0.6285240056363242,0.8598792482987252,0.8096541297674645,0.5307469133458221,0.6134122131910449,0.45606886601646474
2.645,0.6227183551980493,0.8522712059783687,0.8044472163231867,0.5312241490443965,0.613119982254439,0.4553459630079278
2.65,0.6203273489679686,0.8448193617697122,0.8030618852441553,0.5320837220606027,0.6113568909668415,0.4529829347206748
2.655,0.6162440597486574,0.8423681138142695,0.8016318030911105,0.5339065280519293,0.6074463240920541,0.4484199665969254
2.66,0.6087953998667726,0.8428496791606068,0.7970126692067594,0.5351314889754026,0.6016472420760375,0.44192506405124715
2.665,0.6012862342617531,0.8418312132414973,0.7907903676845608,0.5346570218240749,0.5945167244765438,0.43402931123671695
2.67,0.5960079362084033,0.8387387767059963,0.7863947582516184,0.5339296213954874,0.5857873404571247,0.4248954070654476
2.675,0.5914989371474355,0.8360225880507657,0.7844637323305875,0.5342883691757203,0.5750900419569894,0.41421967854155545
2.68,0.5862488610867297,0.8347126749602399,0.7830347258293705,0.533890381417199,0.5634237083763849,0.40175200384543347
2.685,0.580863767017126,0.83341520764021,0.7807369102774799,0.5300770584903223,0.552120522875974,0.38799476360055385
2.69,0.5756842692414031,0.8308843116491446,0.777661784290855,0.5235969755200692,0.5405005807274366,0.3740132697649575
2.695,0.5699004269389141,0.8276815263132229,0.7741040457722866,0.5172850958328271,0.5267683832792581,0.3602884970931061
2.7,0.5639993550657638,0.8250524417289611,0.7704585538941577,0.5111856164958065,0.5113773486198392,0.34636909959539997
2.705,0.5600067318676019,0.8231848118659028,0.7677331788534875,0.502401434218048,0.4969366580278553,0.33208130732330216
2.71,0.5584016592009274,0.8211805368796664,0.7664517098468261,0.4898910195439335,0.484306127060703,0.31823335047083645
2.715,0.557319920032269,0.818262094748276,0.7655446032735853,0.47619424628766577,0.4716833403544378,0.3054273532561824
2.72,0.5553307461555783,0.8143638811451175,0.7637199800029271,0.46369830688115315,0.45847386113337785,0.2930795657773875
2.725,0.552711686347217,0.8100147660453481,0.7613116542858795,0.4519518551300379,0.44685532045156867,0.2805164396521966
2.73,0.5498692680124092,0.8064959965789966,0.7594868757698229,0.43968885939616487,0.4378810041029064,0.26818083224163286
2.735,0.5468872132723265,0.805385528119245,0.7584013948727082,0.42721166986843356,0.42915986266704326,0.2567885250651543
2.74,0.5446287951689992,0.8065125005365579,0.757482614185709,0.41551957604395234,0.4186166359446555,0.24616550600021564
2.745,0.5438279364302446,0.8071735015382007,0.7567226074715169,0.4047137479055306,0.4077563071750755,0.23595749010852277
2.75,0.5430660772048636,0.8054292135084183,0.7562630899501412,0.3943857113948327,0.39871073513472494,0.22661791178978438
2.755,0.5401096031595312,0.8033331962029636,0.755456329016036,0.3845161998283132,0.3906771523026029,0.21859010526690995
2.76,0.5354332106141234,0.8040909406763566,0.7537686063943078,0.3753038747787727,0.3821193313281044,0.2113311348020842
2.765,0.5321296550100154,0.8067171156167574,0.7519049931693773,0.3669581120070798,0.3741049895494663,0.20423931350481125
2.77,0.5319863885658361,0.807136987464754,0.7506652534347865,0.3599442585020881,0.3682284025472002,0.197755014167635
2.775,0.5335675241981186,0.804417816820332,0.7494828866161692,0.35456132968213366,0.36312892826291154,0.19249805549409718
2.78,0.5344583331921121,0.801794741825958,0.7475902396700201,0.35021115137965614,0.35643717702892297,0.18814468143890958
2.785,0.533743875168042,0.8011449341544354,0.7458516072104217,0.345991358589789,0.3487652767268475,0.18420545687904014
2.79,0.5320113167838089,0.8008701374376571,0.7457466211691197,0.34196164423091496,0.34253461129968676,0.1810665290851519
2.795,0.5303301266561665,0.800191499404412,0.7470341049838704,0.33893624185626675,0.33803971961722457,0.17916728011550626
2.8,0.5296446762328619,0.8009422874685495,0.7480502242779803,0.337198094852098,0.3338954269743044,0.17791184270941848
2.805,0.5303567799466917,0.8034353100006257,0.7480162814219782,0.33630499003627246,0.3303933842936978,0.176457148233935
2.81,0.5322363842659432,0.804785011794936,0.7476062198904354,0.33587956058510493,0.32908762131557096,0.17493969659212974
2.815,0.534814301857143,0.8033353764005488,0.747530927714296,0.33567091298423185,0.32961188625184934,0.17403754734879084
2.82,0.5374291990241412,0.8011033699590469,0.7479596520844278,0.33519651726056104,0.33006501426008883,0.1739572379654993
2.825,0.5390546481232299,0.8001035902658663,0.7490948495514703,0.3343051978235628,0.3302760882975935,0.17456993859390832
2.83,0.5392146670463256,0.7997892845714983,0.750963429138155,0.3337610635865968,0.33175011230815715,0.17583000777340996
2.835,0.5391101894028666,0.7996637172837987,0.7527911236575192,0.33433478890440843,0.3345043387376119,0.17744103873174677
2.84,0.5404554952739871,0.8008265953723114,0.7538175482215251,0.3356820346274165,0.3367901824431703,0.17889897467988405
2.845,0.5430930008928873,0.8033440777408508,0.7545789017681894,0.33700728644304045,0.3380965142013074,0.18040369701180786
2.85,0.5452971936733912,0.8053991581938843,0.7562017647798159,0.33835822725096615,0.3398791012163749,0.1828590284339412
2.855,0.5464986016189197,0.8063137998935624,0.7585605135480394,0.3402566486001745,0.34301731337438296,0.18647675527631294
2.86,0.5479260062107146,0.8072000545561896,0.760305434208119,0.3424626195311754,0.3467507996531761,0.19030149371996755
2.865,0.5503836350675909,0.8078865026156666,0.7606980787926506,0.3441848503107063,0.35038604285491487,0.19357477753477223
2.87,0.5532142674064863,0.8068725912755865,0.760390157398631,0.3453137311250242,0.354063406938754,0.1966198361629169
2.875,0.5556647362956859,0.8051114113204592,0.76039123306267,0.3465199464974263,0.35764568993158474,0.19997438218864994
2.88,0.5575557965941931,0.805936652694227,0.7611612614383966,0.3482505685526842,0.36071345878951744,0.2036639214976815
2.885,0.5585822503127296,0.810099561762247,0.7626400024888667,0.35037371629659797,0.3638421538402491,0.20776265139904956
2.89,0.5586613238037245,0.8143558759721228,0.7642921651540269,0.35268669689971444,0.368178061814808,0.21267871553530787
2.895,0.558751095348249,0.815936499529054,0.7652122312620049,0.35514100586884667,0.37361944388898843,0.21842442760803335
2.9,0.5596014851684942,0.8153104373482924,0.76502509756482,0.3576684200394578,0.37897525794985676,0.22443560417691918
2.905,0.5603006063527732,0.814120390611994,0.7645715419719542,0.36026083017395416,0.3839327228961114,0.23039543159385942
2.91,0.5599804393666635,0.8135995387829389,0.7648983239835571,0.36309539099894744,0.38932774671781695,0.23643394365029813
2.915,0.5599577775849767,0.8150888932678227,0.7657612345420488,0.3662585800704134,0.3954717388236122,0.2424317398785733
2.92,0.5617642861511509,0.8186831933029323,0.7660258205320283,0.3695456513868371,0.401693773914827,0.24805391381588401
2.925,0.5641082351301137,0.8213571674323591,0.7654009021165026,0.37274993472627516,0.40755639540679944,0.25351816897504775
2.93,0.5646162556158377,0.8198293534367602,0.7647909412714542,0.37587549091933065,0.41318146529634403,0.2593506549472552
2.935,0.5636883196164996,0.8151461585011869,0.7649206585510475,0.3789141627851489,0.4184182588874165,0.2653302693823052
2.94,0.5636286656545588,0.8112002353389758,0.7655474155338432,0.3817569225075997,0.42292812227054455,0.27061779782779616
2.945,0.5647522671838564,0.8093145501425104,0.7661715876022936,0.3844649562496465,0.42698216499796043,0.2749437584260223
2.95,0.5654632374340055,0.8077987408698708,0.7666881576683922,0.3872922807983285,0.4310804836063033,0.278786104007251
2.955,0.5655058106684518,0.8061383215135258,0.7670937597208088,0.39033905387576395,0.4350714314009211,0.28245370347823906
2.96,0.5659709940273169,0.8058095650389603,0.7672215627287394,0.39345933104601866,0.43868135535154923,0.2858682299148881
2.965,0.5666149141660959,0.807277938780263,0.7670534487965807,0.39648266258283715,0.44236239246419434,0.28911594288678605
2.97,0.5662716809180104,0.8095433285743521,0.7668635569511437,0.39924506513371255,0.4464190427437699,0.2923645750753847
2.975,0.5655441754875715,0.8121713582445041,0.7669029051644077,0.4015703741686251,0.44995324431008366,0.2953871632901835
2.98,0.5662268375302257,0.8148341048376797,0.7672554813916831,0.40357758440820507,0.45208694854467535,0.2978935168060549
2.985,0.5684016422039527,0.8158515466513476,0.7679833827838526,0.40575904815381725,0.45364142130087776,0.3000635237993035
2.99,0.5705564193184824,0.8142199692100859,0.7690894185999665,0.4083318360937333,0.45605321510149116,0.30214370818704733
2.995,0.571959309722341,0.8119806051424686,0.7704155663429841,0.4108242057847843,0.45905177646375556,0.30400046180436036
3.0,0.5727264861089133,0.8117587980960694,0.7718205257503093,0.41281548579512106,0.4610035248348697,0.3056738448010343
3.005,0.5726071467380203,0.8132692585978984,0.7732292078738249,0.41473502956748437,0.4613606392049297,0.3076770885872818
3.01,0.5719363314771199,0.8147077929638619,0.7743220154471747,0.41725679539192756,0.4613106632304513,0.31004415093777654
3.015,0.5724669037160433,0.8156685271333632,0.7746797327996305,0.42012302074047575,0.46203612414440026,0.3118805507666404
3.02,0.5749668313359945,0.8161677969713272,0.7745853744648376,0.42231924423097417,0.4635423355331825,0.31265910947888487
3.025,0.5774235659167041,0.8151891829760165,0.7750452402612239,0.42347608834385747,0.4652033392781734,0.3131335710894155
3.03,0.577798477412203,0.8130036575761889,0.7764748716740141,0.4245084544979087,0.4665092394303751,0.3141220981442802
3.035,0.5769139138642589,0.8124135357688959,0.7780175916819696,0.4265594537336565,0.46729322466354184,0.31522994948403493
3.04,0.5765991541907995,0.8147876126761876,0.7788021372106646,0.42952073777364913,0.4678190173476009,0.31565792274333565
3.045,0.5770201306779617,0.8174238709070885,0.7791394187360339,0.4319776455822457,0.4684056178016686,0.31545277579740844
3.05,0.5779086012795527,0.8176950496092021,0.7796688985820784,0.4329021904879483,0.46871577677554427,0.3150805614023093
3.055,0.5800484948539317,0.8170800935422009,0.7801073873545055,0.43317975748575904,0.46816892127452636,0.3145305438255268
3.06,0.5832569723087264,0.8181589152764928,0.7799004523047446,0.4346873221157831,0.4672713110163497,0.31363662881420146
3.065,0.585341684433411,0.8203504540076307,0.7794424380718004,0.4376668867788533,0.4672518410833581,0.3125602582901139
3.07,0.5853772557524053,0.8215892313671204,0.7794582248501629,0.44008528379547734,0.4679037111806004,0.31133997664310686
3.075,0.5855002728939349,0.8216690233691004,0.7797154183736911,0.44030031308776557,0.4673943403278092,0.30976099963969067
3.08,0.5872528477346763,0.8212422762913467,0.7796012362304122,0.4392143444483384,0.4650555907022699,0.3081197876711682
3.085,0.5889626764201568,0.8200631240852957,0.7795364526485974,0.43867306166427,0.4626907791969823,0.3071646307193365
3.09,0.5891078407001903,0.8186172661844804,0.7805153862933507,0.43891869480142276,0.4620586994090882,0.3069282630655506
3.095,0.5893328559474624,0.8188750592322086,0.7825346907758153,0.4391281890819265,0.46276421990685696,0.3067314325924598
3.1,0.591499882824976,0.8213037627069071,0.7846806638948017,0.43924249797735226,0.4637769950565313,0.30659605386347466
3.105,0.5944477501990629,0.8237521922338922,0.7864704274293781,0.4393118274601753,0.46511938695174854,0.30729729823435487
3.11,0.5962480067914339,0.8249643085960526,0.7879661423013917,0.4382197299331925,0.4666381330591595,0.3087425534576015
3.115,0.5972563940132383,0.8263370975425884,0.7890183702078049,0.4355063124366902,0.46713605942363456,0.30988959924096854
3.12,0.5987027817343985,0.8288317879433517,0.7897152297935525,0.4334720111933839,0.46648171574703207,0.3106725208387645
3.125,0.6005704452390339,0.8312310377721961,0.7911416466800548,0.4346127323530783,0.46663679402007213,0.3122693147966573
3.13,0.6026476291970185,0.8326234585842349,0.7941662246799478,0.43764574186810656,0.4686716134337037,0.3148874982324243
3.135,0.605322516098067,0.833520610189648,0.797683895572351,0.43916027695402904,0.4707144185415856,0.31708246440172416
3.14,0.6080610447307958,0.8338385035099811,0.7995969970179361,0.4386722812056576,0.47095842136865046,0.31802072575361123
3.145,0.6096309760792574,0.83309073313983,0.7995772633686092,0.43861524109993505,0.47068589690078216,0.31866496043531206
3.15,0.6105495748516002,0.8327560690708378,0.7995221493294015,0.43970108178151635,0.47192522186744057,0.31988223139729083
3.155,0.6123772695546809,0.8347338375263825,0.8011612370778347,0.4402880807022153,0.4741074131796713,0.32112962462603395
3.16,0.6143962787656483,0.8376255689526148,0.8043064712041652,0.4404981293868787,0.4757257708755103,0.32197477026570265
3.165,0.6146563892099206,0.8386199208570173,0.8075013704357251,0.44256004143177635,0.47735941952870176,0.3232231855175545
3.17,0.6143791393607102,0.8384641072627693,0.8094456608153725,0.44614390854021063,0.48002393102110563,0.32544693519620593
3.175,0.6169192418461348,0.839952495707005,0.8098170784883664,0.44777792314165105,0.4823513158019026,0.3279286613778315
3.18,0.6219544767297167,0.8423816388427244,0.8094621200807796,0.4464910385567252,0.48282698388321477,0.330127919574394
3.185,0.6254013648535903,0.8428103381613262,0.8096297720756739,0.4457741177184733,0.48326762224563646,0.33268335951364225
3.19,0.6258446194115558,0.841982277352205,0.8105615825160741,0.44785946663948717,0.48632334473241606,0.33584836435003107
3.195,0.6264204378503497,0.8432222157726663,0.8114307391487549,0.45025374706442517,0.4907389954912251,0.3384646597050333
3.2,0.6294336470094588,0.8461259182618643,0.8120401386964791,0.45067391938956775,0.49317028188159073,0.3398391147496598
3.205,0.6335040986748913,0.8473194072849256,0.8133587548017779,0.45141347212017,0.4939620978129886,0.3413183024966409
3.21,0.6368374149467443,0.846829232306242,0.8156124915857231,0.45520910710790785,0.4967455360206707,0.3444867380066738
3.215,0.6392217515865668,0.8475701295090188,0.8173465398644306,0.4600185653269702,0.5022829696044232,0.3487694873680283
3.22,0.6403917977232437,0.8492228185939028,0.8176252123286918,0.4620143288917354,0.5070551114315409,0.3523070785017638
3.225,0.6403770807917324,0.8489185547422236,0.8177341437642526,0.4615584560545061,0.5087701749411208,0.3545353337633073
3.23,0.6413610461400568,0.8472553447930012,0.8192447424154687,0.462167209159199,0.509372521584327,0.35648264476416375
3.235,0.6452711101986662,0.8473354532536759,0.8217623466672134,0.4649497762555328,0.511270513988349,0.3588937951113771
3.24,0.6502229993077836,0.8488628750286,0.8241343874438896,0.4678279478711587,0.5139699625623854,0.3613877716844226
3.245,0.6532975764695588,0.8495985386065555,0.8264370645003246,0.46947049977002386,0.5161079672507303,0.3634916926892994
3.25,0.6553283355718951,0.8511260464203183,0.8290147999319558,0.470637081737755,0.5180526941148724,0.36551262815624685
3.255,0.6585736125042566,0.8562071108185331,0.8309804573792884,0.4719645173139962,0.5207014242457548,0.3681069215751088
3.26,0.66179298104331,0.8620772911003938,0.8316192095111263,0.47326273174150213,0.523765990180416,0.3714804285432479
3.265,0.6626260780678994,0.8637261842897637,0.8320459326150605,0.47485219781937965,0.5267201625454421,0.3751934241924834
3.27,0.6624950773706431,0.8621043968434193,0.8336021987606103,0.477235975360522,0.5297453384724543,0.37854001767265
3.275,0.6639103199471806,0.861630243296486,0.8358382512947226,0.47962294838724223,0.5326952605034689,0.38112073386329604
3.28,0.6656863503414019,0.862004493806454,0.8378117736348552,0.48083025897471793,0.5348675750310279,0.3832093019104968
3.285,0.6662498269582521,0.8607923464672135,0.839897160484202,0.4813833103427117,0.5366702640512949,0.3855090119070741
3.29,0.6681653350645432,0.8611370540006711,0.8424490833255321,0.4828164388791557,0.5396438455552506,0.38841156469930266
3.295,0.6733527465475221,0.8670434895413839,0.8443423124824891,0.485209580084216,0.5439181143315736,0.391569015509619
3.3,0.6778738372793475,0.8735474240502091,0.8449620997935374,0.487267437988826,0.5475562551384241,0.39437775155495014
3.305,0.6781284631048283,0.8727350824372814,0.8460038542413166,0.48854892067255057,0.5494434543340763,0.39686387752821
3.31,0.6777143342262596,0.867902597702014,0.8490024340939776,0.4898009758453271,0.5509420744388195,0.39978468300109615
3.315,0.6808903017791053,0.869597588916925,0.8525907303752391,0.49128154053889106,0.5535456526495761,0.4035934812178268
3.32,0.6843693258660805,0.8780610026578827,0.8544908084848446,0.4925234528572076,0.5567646732018595,0.40755774788710913
3.325,0.6837347929286129,0.8825554693591636,0.8547199758768628,0.49371670471003026,0.5596843372801277,0.4104967158143785
3.33,0.6823647150473714,0.8792706264494826,0.8545807719353526,0.4956740890429428,0.5628233188599584,0.4124065288328658
3.335,0.6847592993911622,0.8765579617587698,0.8540642074706257,0.4983263184947033,0.5667907432646918,0.414581485203371
3.34,0.6868999792494263,0.8792912236923031,0.8525364967978551,0.5007023237183045,0.5705970509207989,0.41781712735975896
3.345,0.6835115101868074,0.881063797457997,0.8503950127389469,0.5025285586103375,0.5731418153056878,0.42134382502039497
3.35,0.6787140892563587,0.87704566844868,0.8478605915654623,0.504516037413303,0.5752629160300743,0.4241229535344526
3.355,0.677922306334481,0.8726844150228069,0.8439142244170552,0.5069090417376251,0.5784395744769941,0.4263261756961683
3.36,0.6756610358487803,0.8728394420198285,0.8385411818178895,0.5090363567631946,0.5822498858580664,0.42867326069812445
3.365,0.6648712573342211,0.8724091945324237,0.8338559961636641,0.5105828259763268,0.5849530051616579,0.4311051411007134
3.37,0.6522147393099927,0.8655692693840948,0.8306903013146014,0.5121344131391802,0.5860808298658179,0.4331592757059895
3.375,0.6486412501087201,0.8563030968660716,0.8265514939983462,0.5140497404214877,0.5866447449218972,0.4349289598119914
3.38,0.6496588596845677,0.8517572842765152,0.8196389012725314,0.5157903649918799,0.5870032578027797,0.4364277708578605
3.385,0.642269126266768,0.8511656115522007,0.812221462569391,0.5168761663015313,0.5862796124597903,0.436603861275798
3.39,0.6284403011660795,0.84883733863177,0.8069088296897,0.5177008437393326,0.5839722980960539,0.43429771637642717
3.395,0.6229002266009036,0.8435216100003189,0.802240923113182,0.5188380116920263,0.5805238430875684,0.42971923272874774
3.4,0.627853248729919,0.8380088365242022,0.7955840298889995,0.5201251264708291,0.5759402651274749,0.4237217486893484
3.405,0.6289386509172821,0.8330756015106502,0.7879956898632675,0.520968089994515,0.5692667786682237,0.416145248275097
3.41,0.6189892364803313,0.8281072831296998,0.7823393862337039,0.5210948532848981,0.5600098433172742,0.4062785224222042
3.415,0.6077588747810421,0.8250005051450112,0.7786344819362873,0.5204375421587006,0.548962896096864,0.39449526982538546
3.42,0.6031763522319278,0.8255845762223694,0.7751083904070567,0.5185498437248616,0.5370515392540872,0.3819160142248119
3.425,0.5995706242520928,0.8267844328048538,0.7718523485353678,0.5147509628880976,0.5243660029284164,0.36876267485569547
3.43,0.591218259161224,0.8234779943103123,0.7695535926633238,0.5088735641038982,0.5109459796414958,0.3545598084418475
3.435,0.5829627573606606,0.815663076762676,0.7666680094868126,0.5014626392491405,0.49753957440121943,0.3397504525831782
3.44,0.579523612516379,0.8089326020342461,0.761977204749799,0.4930982086733662,0.4847721869457848,0.3255852667071462
3.445,0.5763846714536038,0.8077644116455155,0.7579738874581787,0.4837511876530316,0.47230701675301445,0.31242111561844393
3.45,0.5690506916089847,0.8107942830822762,0.757361954454964,0.4729654204278836,0.45961368932738605,0.2994560844237872
3.455,0.5611765350391047,0.812736529990784,0.7580317260005229,0.46058670964319165,0.446903514255603,0.286163192693164
3.46,0.5565098855336454,0.809588990246036,0.7560288796075257,0.44720847100359423,0.43451328678895573,0.27284711288128216
3.465,0.5518745755810913,0.8023080210002156,0.751769418595058,0.4339215916726455,0.42203550529285266,0.25986305824452877
3.47,0.5446032501334548,0.7960485570906768,0.7485446838089252,0.42163337732030953,0.4090183858816424,0.24735843637357793
3.475,0.5385852067491419,0.7949583262149753,0.7465196572870421,0.4105217944871815,0.3960511624200839,0.23567823856620224
3.48,0.5367978523700263,0.7974371545762666,0.7434535324353971,0.40006585434664416,0.38420964001395624,0.22506168609447566
3.485,0.5353671064858662,0.7979066929912971,0.7401062007471133,0.389659630811797,0.37377250330499967,0.21510308747668208
3.49,0.5307714030926819,0.7935304417865257,0.7392389160980115,0.3792682517349404,0.36432342471476814,0.20533938865107987
3.495,0.526095460386364,0.7873583639862071,0.7397441156311291,0.3694561434469243,0.3557119553403823,0.19606477632630412
3.5,0.5248100378132997,0.7841328091769404,0.7374971209753847,0.36078037957841597,0.3479980660960902,0.1878136577690626
3.505,0.5246121518652237,0.7848126981247621,0.7323165928083484,0.3533099296016621,0.34080795627582633,0.18051735866992255
3.51,0.5224087225576146,0.7865169456917527,0.7286773045632815,0.3468082881509452,0.3337094036876339,0.1739410332480743
3.515,0.5196875318027306,0.7866664818315628,0.728755478742763,0.34115195949497806,0.3269888461426395,0.1683571833013508
3.52,0.5183048456745974,0.7856391771255371,0.7298334401264505,0.3363138592199708,0.3212234454830927,0.16395677305010564
3.525,0.5161913373355013,0.7854528643147455,0.7296590763232512,0.3320815601497047,0.31639271979587097,0.16020974595102908
3.53,0.5116966199908933,0.7867937986708364,0.7294692755792886,0.328167810004495,0.31220671444382486,0.1566320465333847
3.535,0.5076482636212369,0.7879990851719845,0.7301891008204806,0.32464725613028134,0.30886867177058913,0.15356488851659106
3.54,0.5070088323976221,0.7871385057015884,0.7302911203536498,0.32195562096616864,0.3066234667671572,0.15144969619485563
3.545,0.5083139436829891,0.7845292273913308,0.7295002099811744,0.3202880285353649,0.3050315310755882,0.15003247407753342
3.55,0.508820939181528,0.7822310542572117,0.7305269760920514,0.31923750349671337,0.303651093971099,0.1489891918376933
3.555,0.5086962730085324,0.7812327362669234,0.7346893698128681,0.31826327121723696,0.30294458696591997,0.148545402972298
3.56,0.5091060507393054,0.7805080185029702,0.7391857768346367,0.3173542198804459,0.3034971356735066,0.14877207812381235
3.565,0.5093091307933638,0.7790645914254268,0.7411203485637656,0.31691577022802514,0.3048350306474073,0.1491186901322253
3.57,0.5084199959851626,0.7773449426483933,0.7413279613067884,0.31704920485809657,0.3060432129620454,0.14935652831227184
3.575,0.5076620226190243,0.7760058906347983,0.7418780336052689,0.3173463797416916,0.3070421288031239,0.15012434255425797
3.58,0.5087273789904805,0.7748949852485111,0.742510117249627,0.3175666941866427,0.3082883001385148,0.1518684751601734
3.585,0.5115892775417765,0.7740886077808177,0.7421779708817586,0.3181254907426912,0.3098582310206666,0.15412309547522127
3.59,0.5149904173775012,0.7744350020244295,0.741930135304529,0.3194994994592474,0.31179695576310024,0.15643237140179225
3.595,0.5175324398811857,0.7760383092010297,0.7434133621199029,0.321402857759786,0.31454197698437547,0.15901794335564776
3.6,0.5181725630689504,0.7775732433943028,0.7458686549756363,0.3231250899583566,0.3179617974349628,0.1619572798426211
3.605,0.51741343627715,0.7781817161161362,0.7471149085477184,0.32458107509998957,0.3209971811776434,0.16473586718457323
3.61,0.5175233109625298,0.7787444901625252,0.7466629674306529,0.3263148633927555,0.32339572402540745,0.16722356670885705
3.615,0.5197157685858262,0.7800934744404828,0.7457976856271564,0.32839861594631164,0.32651603355378916,0.17010004848062377
3.62,0.5222255129861004,0.7811548351813178,0.7452918798261403,0.33020015229677846,0.33103395867217067,0.1737696190698561
3.625,0.5232426395462519,0.7802247436910152,0.744953877300634,0.3316045237374216,0.33539242569301503,0.17783511085738907
3.63,0.5239509121200774,0.7773215511231425,0.7449636394475746,0.33356368555476595,0.33832951266237893,0.18205760987366407
3.635,0.5260239564287106,0.7741291204925054,0.7458636513108852,0.3367445889751698,0.34131998149242243,0.18675660338174804
3.64,0.5282641179567479,0.7721423267764306,0.7473334303158234,0.3403786125047668,0.34621952552731633,0.1918809141165553
3.645,0.529041588526144,0.7717052979449116,0.7484011317736344,0.34329958819204665,0.35199806308950216,0.19681621534683388
3.65,0.5299588391474733,0.7723780469802007,0.7488731481392662,0.3455026606345692,0.35653211339477814,0.20147045675826397
3.655,0.5332122697545657,0.7735521626654713,0.7493981603499091,0.3477435718452828,0.3603656438810584,0.206429109343295
3.66,0.5370656742361236,0.7749777908583285,0.750129447678206,0.35018214896129507,0.36558791093829807,0.21179697037094045
3.665,0.5381016372264508,0.7769235248395672,0.7504471808276905,0.35253345364867317,0.37186154181432357,0.21708077732052858
3.67,0.5366928652313115,0.779486690475603,0.7501783592677892,0.3551034221611092,0.3769320872922604,0.22235061552987076
3.675,0.5361220197911051,0.7819790825511872,0.7500964877917937,0.35842746965447636,0.3807383307563063,0.22817496288907974
3.68,0.5372009991942618,0.7836916758886102,0.7508159822000641,0.36213640505704586,0.3856410581261811,0.23428570895551945
3.685,0.5377669346692704,0.7848655324284614,0.7519171736783408,0.3653915867688332,0.39237657881505644,0.2397623317914273
3.69,0.5369141250501873,0.7859384267137292,0.7526393951311241,0.36823137617974744,0.39890201969524786,0.2446657875036423
3.695,0.5359324609613595,0.7864443958881572,0.752915000876113,0.37125231584144414,0.4038014164410001,0.24993314412846993
3.7,0.5353393618223622,0.7861153997041723,0.7531462744535747,0.37421287310428014,0.4080616396862238,0.25550844954575064
3.705,0.53442208549136,0.7865193740816779,0.7532475096446378,0.37640027255338726,0.41273458822195935,0.2602712640577945
3.71,0.5336169648460435,0.7896340919436848,0.7525906415863329,0.3782579297121039,0.4172832727022243,0.2640770494046691
3.715,0.5342717630318078,0.7948639944322976,0.7510417336932675,0.3810342606024569,0.42113596422028843,0.26810629282068843
3.72,0.5360117847466722,0.7994549412822546,0.7495701473931365,0.3847161310672471,0.42487023564722814,0.27277982800741135
3.725,0.5369448012266543,0.8020479364815404,0.7494095635545778,0.38797810163806007,0.42895165244153666,0.2770791601273312
3.73,0.5364899707896768,0.8038561664880153,0.750713333759352,0.39044086338745043,0.4328073985340906,0.28047735571002774
3.735,0.535835038146402,0.8060015714027251,0.752389232535243,0.3931900141115854,0.43584972340078737,0.28382206517664427
3.74,0.5357611141153579,0.8077831086854135,0.7533211352430822,0.39653811066731026,0.43833342908617967,0.2875812780116954
3.745,0.5359555195000494,0.808319554010053,0.7534546642387234,0.39917608692406686,0.4408290488770974,0.29080466117857323
3.75,0.5362371053067224,0.808025157495097,0.7535236410523883,0.40049765087690514,0.44355015256012015,0.29270309458523996
3.755,0.5367622687874917,0.8074581371079308,0.7540192700632976,0.4019706902509872,0.4460754862512577,0.2939041258696489
3.76,0.5372840333056865,0.806189174956549,0.7547977119379564,0.4048323030380716,0.44732625893814254,0.2952232426117558
3.765,0.5375458513945537,0.803766640350992,0.7555491190683855,0.40792439272523645,0.44669462219093414,0.2963206298516578
3.77,0.5379480870941123,0.8006650797598318,0.7561632931439735,0.40947788145356917,0.4456453169652913,0.29649439408533745
3.775,0.53876560543729,0.7976573546422812,0.7565531875190203,0.4099063871769091,0.4465319959359872,0.2959162374673967
3.78,0.539487967063375,0.795367643265758,0.7565870658578755,0.41096910480960436,0.44896550290614423,0.2952206850799907
3.785,0.5399533343936702,0.7946981574639628,0.7564666827926594,0.41288454917529466,0.449626529751756,0.29451561638970386
3.79,0.5411309337044035,0.7961550447800505,0.7567935302009164,0.41426416694810575,0.44715861630740356,0.2935311165043744
3.795,0.5436353170744062,0.7983655123002951,0.7578415759819709,0.4147038125781104,0.4445781022162969,0.29230819032102695
3.8,0.546409732545773,0.7990335835999961,0.7589983958484718,0.41547667045595377,0.4445799218308598,0.2911781268123682
3.805,0.5479996903534251,0.7980335241762908,0.7594301957441377,0.4172633439931023,0.44529104162413324,0.29032771974405563
3.81,0.5483163124312251,0.7977953685616723,0.7592425555148229,0.4188423515611097,0.44387668268659936,0.2897216979569318
3.815,0.5482424578899705,0.7997837661416662,0.7594732419728388,0.41888809402382793,0.4417808253050856,0.289262070412598
3.82,0.5483761245906864,0.8023560271699622,0.7608194853499171,0.4179598764883728,0.44229624197764755,0.28887046128803573
3.825,0.548990757964949,0.8031830877174426,0.7628061020415268,0.41770052424804655,0.44474299755166247,0.28855557155881284
3.83,0.5503873650700954,0.8021733153322104,0.7644588813997049,0.4186724565043744,0.4455717177146371,0.28839524451997106
3.835,0.5525373983323155,0.800808941410522,0.7654858180730607,0.4199450493046396,0.4443107078051171,0.28836878002250343
3.84,0.5550509575388466,0.8000898420236878,0.7664402923832773,0.42057175010284487,0.44392454418535093,0.2884059698869826
3.845,0.5578528706634038,0.8004461584450477,0.7678316373564623,0.4205994599037215,0.44549658291206895,0.28869002382678177
3.85,0.5610345269788768,0.802359618312108,0.7694545641454733,0.4205485315830915,0.44683558468885215,0.289533823141829
3.855,0.5638980834460887,0.8056411974743486,0.7707685560875424,0.42061970120551834,0.44673915329612235,0.290795043942567
3.86,0.5653392317519896,0.808999570791786,0.771734601225696,0.42076738580664647,0.4467935568588076,0.29189882182092525
3.865,0.5654938219865616,0.8114089367590136,0.772905507857049,0.42110973838367843,0.44817018233052586,0.2926873357108982
3.87,0.565838173530014,0.8130867595111908,0.774579038808409,0.4218008987768158,0.44990601189632734,0.2937184647877766
3.875,0.5672827123369122,0.8144993839192413,0.7762375958368538,0.422670055943736,0.45118181571389826,0.2953971073893352
3.88,0.5692224901632299,0.8155925649382785,0.7772267730747272,0.42339361277191384,0.45247678319337326,0.29732595323683525
3.885,0.5707880473315547,0.8165276317693084,0.777754303117143,0.4239728899296187,0.45379458745365764,0.2989011331405495
3.89,0.5720242943515484,0.8176450701721499,0.7786437761218841,0.42468828130454916,0.45441048611143936,0.3001211842135219
3.895,0.5735123293092933,0.8181899958956013,0.7801574089702047,0.425608242308269,0.45499312200365344,0.30144813989338165
3.9,0.5756454829938408,0.8170490665397916,0.7817064846664469,0.4265378414054688,0.45737532930913194,0.3032135003345525
3.905,0.5784291665430236,0.8154472238532846,0.782833524529609,0.427498229777621,0.4615014913551839,0.3054320535445332
3.91,0.5813077128900965,0.8164433722531741,0.7838719770284189,0.4288182556129443,0.46503446412399424,0.3079047451073482
3.915,0.5833340677838655,0.8204692359542631,0.7854487732121683,0.4305752740859296,0.46678107610826614,0.3103277743266085
3.92,0.5842606727692299,0.8239374751741451,0.787831972848726,0.4323490752988262,0.4682409229416522,0.31253757400212184
3.925,0.585102276890565,0.8240740925862872,0.7908137948689923,0.433804771723522,0.470877835189401,0.31468179733135304
3.93,0.5867651146411411,0.8226222735581078,0.7936661322134061,0.43518150616998935,0.4739708420926841,0.3169508818424153
3.935,0.5887068621055807,0.8225417849184672,0.7953225159987759,0.43685671769722406,0.47628317708804335,0.3193135780256713
3.94,0.5900714658435688,0.8235498757091301,0.7954444940545892,0.43867403537899896,0.4781414338168819,0.3217673981813753
3.945,0.5914539173490995,0.8238254999051742,0.795248153645535,0.4400993991836166,0.480639478636667,0.3244971408749509
3.95,0.5939989211099493,0.8240246097243316,0.7962580073733755,0.4409420746998655,0.4839340725105482,0.3274311201041306
3.955,0.5972034438289738,0.826128737405069,0.7982570804744908,0.44158958555522115,0.48732170301880445,0.33011930187686117
3.96,0.5993930996342681,0.8295222140871781,0.7996769329163145,0.44255583564254763,0.49025257230332203,0.33250558715106493
3.965,0.6003272451803895,0.8315820904262471,0.800065598367278,0.44404466186941366,0.4926387543004503,0.33522722717627274
3.97,0.601580438374988,0.8316304970393352,0.8007019100839863,0.4459402636086343,0.4947292937795237,0.3385697375016045
3.975,0.6040614709367235,0.8314733706381724,0.802466200084035,0.44799988314374684,0.4970045063443907,0.34179923998988976
3.98,0.6067858259684596,0.8324913329887081,0.8046577926568376,0.4499998598854329,0.49972526644973564,0.3442551574099229
3.985,0.6087122712232329,0.8347579650209183,0.8064821410676944,0.45181578591077715,0.5025485272356398,0.3464242155519192
3.99,0.6104286680314427,0.8384185569834935,0.8082527924256183,0.4534383811060248,0.5050350734012581,0.34911629256272575
3.995,0.6131705319666874,0.843182116370411,0.8104554856169686,0.45494836293671104,0.5073254305428369,0.3522543682767289
4.0,0.617129733544518,0.8468182332054002,0.8129234721719459,0.4565349859082784,0.5098047694210631,0.3553502889162826
4.005,0.6215572378808125,0.8470280213939412,0.8155008010361395,0.45849070626129274,0.5124658922226148,0.3584780232451421
4.01,0.6258059958596578,0.8449667581191275,0.8182559169914753,0.4609999956666106,0.5151801332673178,0.3618245376102237
4.015,0.6294663816865076,0.8443558479285275,0.8206884446735444,0.4638465167370687,0.518138808368443,0.3649498287035156
4.02,0.6320922164172448,0.8466710274393645,0.8221724195730604,0.46645784641912,0.5213937803203168,0.36748704181618563
4.025,0.6337539541854619,0.8495231199442723,0.8234391292663353,0.4683753883552573,0.5244713070825809,0.3699589339273238
4.03,0.6355352335210535,0.8505589107196707,0.8259436159043636,0.46966582444535515,0.5271060153057521,0.3729461328940364
4.035,0.6385056379405931,0.8508603060890049,0.8294967705971708,0.4708137048868466,0.5298066124896653,0.3760839500782549
4.04,0.6422841565166938,0.8529939451944394,0.8323563355000732,0.4722257521034751,0.5329974995349763,0.3788238171439662
4.045,0.6455466490292429,0.8569129179758305,0.8338936047401129,0.4738946642976258,0.5361873576797933,0.3815038424813144
4.05,0.6479217207901486,0.8597485607945167,0.8351523257739693,0.4755813974751473,0.5387673989698295,0.3846677007015759
4.055,0.6501992025124219,0.8598839519795514,0.83659330896969,0.4772801804414869,0.541108356994174,0.3879641986720029
4.06,0.6524016983638616,0.8595340318915939,0.8375757444713616,0.47933860294562863,0.5440530840124547,0.39072367881468134
4.065,0.6531680212911669,0.8615988476464488,0.8382569034626978,0.4819884768838524,0.5477097568048072,0.3930643546727659
4.07,0.652031217328052,0.8647285861581013,0.8394179397299522,0.4848891317782264,0.5514500014071717,0.39551958486621525
4.075,0.6508865914887529,0.8644278124699641,0.8401428891608178,0.48738796376194654,0.5547487390054522,0.3981221226361104
4.08,0.6515072151131708,0.8598950310953518,0.838551984887919,0.48921787229915176,0.5574276683255952,0.4006765443935628
4.085,0.6525432334946172,0.8563610959618472,0.8352511960285167,0.4907007056393334,0.5594598023085845,0.4033632871518901
4.09,0.6510361627390177,0.858006888249161,0.8329253717530684,0.49226295720874413,0.5611485148018558,0.4063175727087945
4.095,0.6464256127546533,0.8616035738439282,0.8319195852623844,0.49401691600663433,0.5632019577906917,0.40917808386180515
4.1,0.6408144241302881,0.8611339089873912,0.8295828990673514,0.49586626456406585,0.5660751393283927,0.41169696900545927
4.105,0.6354205358162291,0.8562721456391906,0.824813294457029,0.49776072628084245,0.5693956465198616,0.41420346729183394
4.11,0.6293347615418365,0.8513157975055756,0.8197185214105591,0.4997167512154251,0.5723742490233519,0.41694430056330056
4.115,0.6222250863553513,0.8475492684047471,0.8156860784992583,0.5017003656574278,0.5745868935985148,0.41961413231606
4.12,0.615577403244692,0.8426931691163567,0.8114323534957597,0.5035339046533649,0.5761324902166105,0.42191808288046667
4.125,0.6100607561767699,0.8371786163127014,0.8062805746486339,0.5049437925954775,0.57725212326527,0.423828074945041
4.13,0.6040057116840958,0.8343906814908568,0.8017093713511809,0.5059316644084828,0.5779807872887703,0.4249866236182307
4.135,0.5961542716311391,0.8342390004853772,0.7980791050516882,0.507137501930679,0.5780375100777653,0.42474533474548
4.14,0.5880568607914176,0.8329000347597059,0.793443727879705,0.5093174792918155,0.5769974816261866,0.4230338006800038
4.145,0.5818782721850939,0.8297993942507016,0.7873514700627422,0.5121402851222366,0.5745729967400652,0.42021491045013465
4.15,0.5772111006790384,0.8281437023119059,0.7822591911306604,0.5141153914173782,0.570510683154305,0.41594689414464836
4.155,0.5719429812340616,0.8272638650909657,0.7792908349093247,0.5143192808026771,0.5643020872041801,0.40935575872838337
4.16,0.5652979704527251,0.8220169766974799,0.7760737279335377,0.5135794622805865,0.5557124313906184,0.4004940540922011
4.165,0.5581985095585135,0.8124218122865504,0.7708161297712832,0.5130805743377405,0.5457757275258008,0.3903638125783846
4.17,0.5512287331657366,0.8060588755785917,0.7652657742662449,0.5123609270731991,0.5362024599323263,0.37932856082565314
4.175,0.5440222296625828,0.806612196119339,0.7615875549068999,0.50985072537137,0.5271708821983977,0.36684677375717367
4.18,0.5366943527464266,0.8073395332928369,0.7592987744003142,0.5050239143844735,0.516845131824839,0.352945860818922
4.185,0.53058650558192,0.8016165967238817,0.7570947647195998,0.4986667348423579,0.5040609508051193,0.33855409352670673
4.19,0.5270131273019433,0.7935234924434401,0.7548507898787234,0.4911570750947153,0.49027232974121854,0.3242050454018974
4.195,0.5254993615657774,0.7909256791919016,0.752386647527492,0.48195950551370925,0.4774179512363945,0.30981815386996675
4.2,0.5236312968016132,0.7930471819770336,0.7491519331619173,0.47100942331998086,0.4650478964990645,0.2957868078492706
4.205,0.5192984760410334,0.792977092641063,0.746116174590868,0.4592076521243402,0.4515469136837824,0.28271255883603413
4.21,0.513337261753837,0.7895626660852126,0.7447982216204037,0.4471535936208992,0.4373182127280612,0.2700871246408189
4.215,0.5088117038701683,0.7883972680494868,0.7439346959310048,0.43456822265407125,0.424230986593722,0.2569865903323696
4.22,0.5068029698284957,0.7914136849130107,0.7409550617339452,0.42134632318329346,0.4121341344492664,0.24401617151127
4.225,0.5045895927755909,0.7930629404608819,0.7370322893039687,0.4081345026180167,0.3986777540102306,0.23257707852553658
4.23,0.49992856866070706,0.788723648908925,0.735871889850351,0.3956302574429352,0.38323280079517,0.2222238786393717
4.235,0.4952653996794959,0.7814445076290863,0.7368813590963359,0.3843081947361586,0.3684948928119947,0.21108247217120932
4.24,0.4942666216070907,0.7773880699641722,0.7351839860409753,0.3747437434159253,0.3569195176621411,0.1991683172860219
4.245,0.49531450792661147,0.7778194238333003,0.7298532051247728,0.36683759585247444,0.3475732707150147,0.1887787883085846
4.25,0.4930934130340877,0.7786606599969143,0.7260988531836261,0.3588764717770354,0.3381824107684549,0.18091549342447283
4.255,0.48699460668033495,0.7765941860370951,0.7268497878763988,0.3492418077142616,0.3287626317749134,0.17379724472078448
4.26,0.48286676645473414,0.7728608925266293,0.7281354741426598,0.3392237918025511,0.32114483882589384,0.16595224925503724
4.265,0.4843039823290231,0.7707193320694551,0.7261723308593091,0.33199583804340693,0.315673987100379,0.1584473659313438
4.27,0.48683071990200966,0.7710362699791694,0.7234807658289014,0.3282328065863806,0.3105630376478221,0.15269832253470714
4.275,0.4844468660892216,0.7718693383425268,0.7238230440237289,0.32504182171662227,0.30470096099609734,0.14813628860683767
4.28,0.47856816229292093,0.7716390930526118,0.7257923912903501,0.32026174448914363,0.2993744470201062,0.1436418374955919
4.285,0.4757458180103652,0.7706929498275684,0.7259335938794826,0.3154777417578295,0.29638254769451466,0.1396304847746552
4.29,0.47808469250715985,0.7695842715758493,0.724476938715825,0.31313288733124467,0.295431846913946,0.137068294630835
4.295,0.48076496820275,0.7680550707828012,0.7236527970217694,0.3126970124163033,0.2944294500002061,0.13566661144149827
4.3,0.4793817231076871,0.7665787852228995,0.7233988115872124,0.31184048609540377,0.2921080058517228,0.1345433498423082
4.305,0.4757436199709621,0.7666482298889635,0.7227226163153064,0.3099791100820415,0.28950561683976245,0.13368316271844352
4.31,0.4746447007406491,0.7682820232958345,0.7226585614642747,0.30843157962619977,0.28857104098718234,0.1334635542116305
4.315,0.4773224543535812,0.7695099905295247,0.7241974311517064,0.30793862398594496,0.2897953261583383,0.13364636658847018
4.32,0.4804404158641076,0.7696774193870262,0.7255990924212173,0.3080609653337387,0.2917810879745743,0.13403109254373918
4.325,0.4808984365328453,0.770694410787068,0.7250787036868442,0.30850533551303133,0.29308546674106584,0.1352884170922335
4.33,0.47969844955149255,0.7734220238227166,0.7240806697398701,0.3092912308395719,0.2938539046508492,0.13799224476849553
4.335,0.4802243664605856,0.7756348437297068,0.7249122140114541,0.3099832733224741,0.2952522641438702,0.14146944553639315
4.34,0.4835051124988602,0.7754028559771547,0.7270478104581194,0.3102512665573355,0.29773248744329994,0.14460172695933052
4.345,0.4867394381315653,0.7735876628603743,0.7284652402803106,0.3108055298923245,0.3005566875937727,0.14717087706670431
4.35,0.4871807066092579,0.771283975187901,0.7289060157892618,0.3124374659605206,0.30298522163837927,0.1495510431050397
4.355,0.48615381997664014,0.7682686029123904,0.7294553474417773,0.31458361102635723,0.30524170254962685,0.15177658410744538
4.36,0.4873865947101098,0.7658550863411525,0.7304670271941008,0.31617070947299025,0.30804080684474805,0.15392523738508687
4.365,0.4917611860582782,0.7671336173658166,0.7318436891636199,0.31744518739825445,0.311669203106296,0.15681775630102257
4.37,0.495979021884798,0.7719161385837036,0.7338350057569661,0.31957788359663586,0.31590564035885565,0.161140944621734
4.375,0.4970744453091824,0.7757420153229251,0.7360275871426425,0.32271086037418645,0.3204829403253742,0.1661296364185521
4.38,0.49624321252134534,0.7764977578850455,0.7371514220251981,0.3256994756526251,0.3252059314848601,0.17024208478372016
4.385,0.4967779096578921,0.7772282858532531,0.7370622456328964,0.32775285476429084,0.32987172432610673,0.1731601249000873
4.39,0.4995806854252054,0.7795343402880609,0.7371720162966274,0.32931139890990463,0.3345204404275514,0.17614651886035992
4.395,0.5025393945665929,0.7798448057439773,0.7380702868366323,0.33128670127218657,0.33958098591889957,0.18025114304763384
4.4,0.5037963783305222,0.7761827887601725,0.7387518316965784,0.33412849668383743,0.3453011714073689,0.18509820141442393
4.405,0.5038289240099623,0.772939767635429,0.7389015380827012,0.33754663630553783,0.3511744552223632,0.18989238232364727
4.41,0.50402545316311,0.7741619600991458,0.7395818065548588,0.3407345440172119,0.3564532380427056,0.1948009200726804
4.415,0.5045926047489101,0.7774207947027161,0.7408409814933393,0.343185507846287,0.3611447299565451,0.2005102104716501
4.42,0.5047700295647304,0.7792830144987231,0.7411556149095327,0.3454890180053801,0.36590915887172715,0.20683285830756126
4.425,0.5044799825405384,0.7813157629341894,0.7402630935583745,0.34862732071201263,0.37099741147522214,0.21272777145021676
4.43,0.5046698870114965,0.7851239594468454,0.7400648088278574,0.3523157977360704,0.3759986445743157,0.21773229231731905
4.435,0.5058810846749493,0.7870157974375545,0.7415074627695954,0.35516381411334536,0.3807734923403811,0.22253124944949268
4.44,0.5073424774389698,0.7840038214087767,0.7428825342382567,0.3569007383312128,0.3858647214536804,0.22785145791798347
4.445,0.5080766845880551,0.7801664378458859,0.7425905351628121,0.35908303629795046,0.3916203246826477,0.23352460691502844
4.45,0.5082935169007466,0.7804562114459056,0.7415813102936785,0.3628112471335185,0.39757330926219975,0.23903404473864748
4.455,0.5087815817375583,0.7827183837076902,0.7416118960742759,0.3670782822166371,0.40312427868089973,0.24431462832246517
4.46,0.5093177708994834,0.7824284563225562,0.742684389885597,0.3704078764162792,0.40822852025633566,0.24946159345383162
4.465,0.5089478807819152,0.780840603724784,0.743570228036256,0.37291636424973745,0.41295432803076493,0.2541875323742704
4.47,0.507875652834816,0.7815034830575248,0.743707560007149,0.37559392427464366,0.4170374472004366,0.2581928013968968
4.475,0.5076800003895555,0.7829350002497769,0.743444721629172,0.378631392018637,0.42048677892602276,0.2617002212873443
4.48,0.5091684362024881,0.7820400553523711,0.7431693844503453,0.3816990260750497,0.4239917147962234,0.2650777300931638
4.485,0.5112338431662088,0.781042966372774,0.7429861439693676,0.3849753304289614,0.42796282776396366,0.2682719964196722
4.49,0.5124935406370267,0.7835716821148305,0.7428322448391624,0.38869857240531935,0.4316951775331386,0.2710753213717832
4.495,0.5129235382623575,0.7870526272365244,0.7426015815725379,0.39242332305205474,0.4343143556275508,0.27354009226935594
4.5,0.5131161243562162,0.7864514551119501,0.7424144658905134,0.39567397871040794,0.43608305847480067,0.2756672692418379
4.505,0.5131120523684979,0.7829738357968103,0.7426086461717973,0.3985479288685047,0.4378235909037832,0.2771569041616806
4.51,0.5130211357977171,0.7818207461672454,0.7432301984288248,0.40094302771642387,0.43942330220423464,0.27795966598957866
4.515,0.5137651646249396,0.7834626113050495,0.7440324630289307,0.40229133586107857,0.4400431335155374,0.2785693163645544
4.52,0.5159094137101402,0.7841918556805104,0.7451144870867661,0.40288034161393804,0.4397214517942336,0.2792601116213692
4.525,0.5184417550156569,0.783653978434832,0.7466225643102656,0.4041412717771118,0.43963481007443267,0.2795990320392987
4.53,0.5199648467160699,0.7849161552467692,0.7476961325470806,0.4065926549200545,0.4405246365617524,0.2792835948227804
4.535,0.5206190464048913,0.7879181216111484,0.7471847028266757,0.4087839151938528,0.44176706162639023,0.2788748649260074
4.54,0.5216448251774923,0.7891279106045771,0.7458369128951637,0.4094003135363848,0.442353921214309,0.27904122397155273
4.545,0.5234082213402313,0.7875699295704863,0.7460484656973706,0.40911634902917066,0.4420740316580478,0.2795881255365039
4.55,0.5250542822018872,0.7861106246287974,0.7486811281063961,0.40917251484326833,0.4413123716162838,0.2798832262990844
4.555,0.5259898580596643,0.7868257169698765,0.7518132353442097,0.40947089252127683,0.4402630649649937,0.2797835342332612
4.56,0.5266483160113724,0.7890980002495855,0.7534388113163845,0.4094248455249131,0.438879513572006,0.2795658978034868
4.565,0.5277025619207762,0.7918717149543744,0.7536955719168257,0.4093854776798183,0.43734655608970424,0.2794071435478323
4.57,0.5293021337213997,0.7944308416686312,0.753705965748384,0.4097662146481394,0.43617826006953636,0.279447002891598
4.575,0.5311888934168998,0.7956524873858908,0.7541399567389939,0.40993805363364916,0.4358573412358039,0.2798628042316799
4.58,0.5330031218179042,0.79525727510685,0.7557209574335039,0.40941754460367624,0.4364792700142512,0.2804155870203748
4.585,0.5344393489575412,0.7948370071475696,0.7590672204891851,0.40898971279653734,0.4376358841516577,0.28047768269640827
4.59,0.5355418385208688,0.7955994451433774,0.7630521509958141,0.40929856734581954,0.43863142984759956,0.2799663630431566
4.595,0.5368376733221889,0.7966788233918923,0.7653488338184564,0.40960984302726017,0.4390470171320222,0.2796830196799232
4.6,0.5388276575239012,0.7973455323826704,0.765577473959601,0.409391526064535,0.4391941773549101,0.2802992830976839
4.605,0.541370135939837,0.7986173987151309,0.7659164851501814,0.4097045542375031,0.4398172513711201,0.28156184574107823
4.61,0.5438076171428992,0.800921563172297,0.7677365677825237,0.4113905642647561,0.4412443209638054,0.2828483220507662
4.615,0.54565199523551,0.8026589864392376,0.7697918810280787,0.41326724475096344,0.44302990312911683,0.2839243120664485
4.62,0.5470295789715272,0.8028441021601729,0.7706935009453051,0.4139259209191388,0.44455857508372404,0.2848569391743327
4.625,0.5485544316598961,0.8026718280893737,0.7709833585765566,0.41402023216363504,0.44574627754824503,0.2857584170738828
4.63,0.5507507081411377,0.8030241942379096,0.7716797123189342,0.41486689628601775,0.44688951226266316,0.2868234149923049
4.635,0.5533916595565167,0.8031559489445089,0.7727594026609317,0.4160464437908714,0.44808446325122064,0.28811430489361434
4.64,0.5555077969824324,0.8031189427913479,0.7740340208843072,0.4165065977095341,0.44930828439216663,0.28938807675869926
4.645,0.5563880723008569,0.8045055221812999,0.7756519245841736,0.4169480955073327,0.4510206382660384,0.29075992614143037
4.65,0.5564747618156743,0.8074813238295736,0.777013983948546,0.4188209353976616,0.45399660410695125,0.29313438462609914
4.655,0.5569002148346722,0.8099789539171277,0.7771162796595582,0.42169778423167886,0.45822473830504856,0.2969450509261892
4.66,0.5583336421019625,0.8109283201735665,0.7765271842773429,0.423857611496065,0.46249667183862553,0.30089723147195613
4.665,0.5607416928002187,0.811461426379973,0.7770467541243962,0.42497728365876847,0.46558968003489276,0.30335002951553003
4.67,0.563932222286148,0.8122339947307589,0.7789878853556444,0.4262127453820816,0.46752964771890215,0.304660440862202
4.675,0.5675492093786781,0.8125791180333126,0.7808341170838221,0.428007598320791,0.46926429697582367,0.30659024504159027
4.68,0.5707463399421229,0.8127923066698343,0.7818702305950347,0.4297147969944682,0.4714614236450902,0.3096034890013969
4.685,0.5728442117344211,0.8141001616201512,0.7830005269562361,0.43109076530382245,0.4740820484943199,0.3125547103667238
4.69,0.5743602837959815,0.8160167978347675,0.7847150489995538,0.432470620915635,0.4767453208907963,0.31501590790983003
4.695,0.5764587065102937,0.8168374041836296,0.786398313737501,0.4337649573455641,0.47908208437079913,0.31790570437163074
4.7,0.5792198398226659,0.816781168560193,0.7878328818869607,0.43477673090786106,0.4811833536460007,0.32151105807696845
4.705,0.581382178149954,0.8174929047914168,0.789320091682235,0.43608076314283245,0.4839613405611976,0.32482808381773803
4.71,0.582130784337513,0.8187749185282942,0.7903569733334642,0.4381831216812559,0.4881873141595845,0.32737817948515147
4.715,0.5823180563065153,0.8191748628768807,0.7903051456963834,0.44039305616123947,0.49279367194619444,0.3299091234615586
4.72,0.5834084721132384,0.8192271398899439,0.7901417298860357,0.4419463676037483,0.49552243919593963,0.3327742647082699
4.725,0.5857347507927783,0.8205251878911487,0.7913869630966065,0.4435304651505888,0.49612779326320244,0.3353327289636473
4.73,0.588228151311226,0.8222743707775574,0.7937112916218653,0.4461535913738098,0.4972949240608576,0.3374927937732296
4.735,0.5896214590450789,0.8224825191314853,0.7957891092829413,0.44921087717252955,0.5009700992501969,0.3401558576617002
4.74,0.5897838566278073,0.821808724361222,0.7977770961080124,0.45129782135367447,0.5055011565047504,0.3435533653221913
4.745,0.5900756841237637,0.8224740944909521,0.8004836813547975,0.45232552577109986,0.5083375963782996,0.346772083470998
4.75,0.5922148931881074,0.8241860166939561,0.8029859999559782,0.45326215847466517,0.509821550326887,0.3494636586192182
4.755,0.5964508111974466,0.8248759835535743,0.8039049102898471,0.4544262567301446,0.5118630627785189,0.3523680432345258
4.76,0.601217423574171,0.8245914875243208,0.8042909677489226,0.4556136589389588,0.5145636035833592,0.3556078690219588
4.765,0.605050461176619,0.8250806885528906,0.8062925701395831,0.4572336418677415,0.5171106976957033,0.3582211779459411
4.77,0.6081945957480851,0.8265691386695054,0.8095600047134298,0.45967426709873355,0.5203625694503187,0.3600849806210169
4.775,0.6115151496943734,0.8282841843164841,0.8118740888493364,0.462174715165457,0.5249810525313464,0.3625837565717433
4.78,0.614698811786132,0.8307194704480736,0.8127951842349824,0.46394741838201364,0.5285385604877221,0.36648724443317066
4.785,0.6169789789183843,0.834062050119377,0.8138834717229836,0.4657242837041394,0.5288017496447066,0.3706797727713349
4.79,0.6189955416756834,0.8361704154975073,0.8158613949268311,0.4684828857248966,0.5287325421884332,0.37390077281755535
4.795,0.6220252889854565,0.8355164502593482,0.8182108192306449,0.47136672486312986,0.5331457607418646,0.37639652026057113
4.8,0.6256108512631737,0.8342246145341653,0.8208669667101232,0.47279684699497737,0.5408460582469101,0.37896904275639925
4.805,0.6280838510983894,0.8349875741966063,0.823716872861339,0.47312197809373485,0.5456980781689041,0.3816383844410642
4.81,0.6294691005853688,0.8371967467103001,0.8252972586780914,0.47417802998960024,0.5459222447603943,0.3841860340712739
4.815,0.631382681579829,0.8391144167355794,0.8245694559969159,0.47651478349362847,0.5464120219620561,0.3870132345992386
4.82,0.6336068217367797,0.8410489723027086,0.8229803495030876,0.4789788789938519,0.5504479670735688,0.3905588341941723
4.825,0.6337472469243388,0.8432582336640381,0.8222779482752545,0.4809045816595771,0.5551025540307819,0.39453475890329887
4.83,0.6316431382194773,0.8439311498083183,0.8215736364448611,0.4828729404448698,0.5573379915637626,0.3983178073711037
4.835,0.6310136459643382,0.8424759185829054,0.8191046233000616,0.4852645417297203,0.5590561282215268,0.40155011328694756
4.84,0.63418783849313,0.8412651610693772,0.8153204526718011,0.4877104114906131,0.5626917877922946,0.4041415849691917
4.845,0.6377262990719719,0.8409582302825489,0.8114901346021794,0.490059649971178,0.5665941005132454,0.40634897857231184
4.85,0.6366115009876859,0.8382888986525404,0.8070471681262702,0.4924355961148783,0.5686197532913138,0.4088776955576013
4.855,0.6310406591552824,0.8319708744142418,0.8013368137758393,0.4943567073151818,0.5703251493039349,0.4121187169439114
4.86,0.6252705040486645,0.8260868461243726,0.796142602085546,0.49525484957065524,0.5736977133186856,0.4153709446162122
4.865,0.6207898606591189,0.8235966751577909,0.7931888180143246,0.4958374485521654,0.5770808053033079,0.4176679589015464
4.87,0.6149941524968896,0.8213705290719843,0.7908920555603437,0.4974670012468491,0.5781206011868004,0.4190987769224493
4.875,0.6066646885801129,0.816107728802326,0.7869264038811886,0.5001449433048016,0.5778464129645156,0.42023220557379753
4.88,0.5982462297610551,0.8102196015518575,0.7821369622406289,0.5025239418564857,0.5781900495429911,0.42054074185940205
4.885,0.5913792351588718,0.8070475392828106,0.7783854609075359,0.5039651943390798,0.5779878656384595,0.4187222687977759
4.89,0.5841888981682444,0.8052061218446632,0.7745953457700264,0.5051169957240005,0.5748735008993212,0.41445990660998466
4.895,0.5751606116928122,0.802653345150462,0.7690341470331317,0.5062971998134185,0.5689385509660562,0.4085261109165071
4.9,0.5663272119534539,0.801258304509083,0.7636476528283475,0.5068266391465461,0.5614710326592833,0.40120196055637136
4.905,0.5598973954001615,0.8020179426600086,0.7614761082543735,0.5063915981925676,0.5522420078691415,0.3919641021910648
4.91,0.554420504797128,0.8009428957772808,0.7610373297925076,0.5056464036985934,0.5409037597447937,0.38076959185946463
4.915,0.5473507139176953,0.7954159363917299,0.7581287333750577,0.50473501988326,0.5289370488739873,0.3683001961728996
4.92,0.5394054869186651,0.7895596946440853,0.7525592465975983,0.5023169183652386,0.517497584763243,0.3548560980359091
4.925,0.5332093263054313,0.7874350791879275,0.7481991860183176,0.4969586360726321,0.50540139850703,0.3403518079568309
4.93,0.5290320457929618,0.7862096370930719,0.7463443238395632,0.4888477293636003,0.49169022345298896,0.3255017535154474
4.935,0.5250410912560842,0.7823938381062702,0.7439071067143591,0.4793629059930779,0.4779343069079637,0.3115633409941538
4.94,0.5208691605457328,0.7792727218039518,0.7391323856608174,0.4693510148748336,0.4655499244877772,0.2986052559737804
4.945,0.5178024434619398,0.7806851366723312,0.7347223200541807,0.45851837664332634,0.45320701331453844,0.28539590645458
4.95,0.5157758687027346,0.7824500059952436,0.7334722747668998,0.44637613082620226,0.4394813842914268,0.27143814698275215
4.955,0.5130209058601096,0.7784073471676897,0.7341606271446034,0.43319824940914586,0.4257941421089281,0.25784378910961664
4.96,0.5087774255967483,0.7712028153970222,0.7339042569267165,0.41986755262293823,0.4140622192574484,0.24563548912418348
4.965,0.5040809625709199,0.7684202359648034,0.7322280662443759,0.40704560287651886,0.40352584760518445,0.23433424983509865
4.97,0.49986173246153176,0.7705980823769023,0.7306202350657353,0.39479906315829516,0.3924876406617965,0.22295247480086922
4.975,0.4962619217808114,0.7715630385575445,0.7295295116543853,0.3830779450300268,0.381223220978892,0.21149664680050065
4.98,0.49363193572402625,0.7690353644393577,0.7280074685557645,0.3722179807361454,0.3706930544162186,0.20072919815788806
4.985,0.4921965344968601,0.766623216169304,0.7260156929606286,0.3625996321441192,0.3603264370730173,0.1910641350279338
4.99,0.49097597434821966,0.7657836044758328,0.7253627702234978,0.35399896875807274,0.34959500194849635,0.18238682151189275
